
Integration time [ms]: 100.000
Averaging Nr. [scans]: 40
Smoothing Nr. [pixels]: 0
Data measured with spectrometer [name]: 2101013U2
Wave   ;Sample   ;Dark     ;Reference
[nm]   ;[counts] ;[counts] ;[counts] 

394.013;   45.598; -450.257; -315.536
394.305;  161.496; -461.258; -419.536
394.596; 1565.996; -676.269; -527.514
394.887; 4164.966; -796.268; -654.518
395.178; 1517.303;  145.736;   11.476
395.470;   75.841; -210.263; -356.526
395.761;  149.509;  305.734;  394.479
396.052;  122.745; -545.284; -306.489
396.343;  103.204; -557.276; -454.503
396.634;   33.591; -200.279; -290.497
396.926;   40.113; -618.268; -565.517
397.217;   60.159;   11.725;  -17.504
397.508;   26.404; -366.273; -154.507
397.799;   26.016; -555.279; -571.497
398.090;   -0.266; -973.280; -902.495
398.381;   77.679;   11.708;  -11.473
398.672;  -11.120; -585.292; -742.473
398.963;   35.323; -348.279; -373.498
399.254;   83.116;   54.709; -209.475
399.545;  -30.570;-1017.266; -883.520
399.836;   40.366; -407.277; -343.501
400.127;   41.975; -205.295; -209.468
400.418;   35.822; -423.274; -392.506
400.709;   26.519; -359.281; -333.493
401.000;   36.146; -268.291; -309.476
401.290;   99.123;  225.698;  115.545
401.581;   76.424; -166.286; -228.485
401.872;   25.616; -542.298; -486.462
402.163;   65.766; -313.296; -252.467
402.454;   85.117; -123.291; -163.475
402.744;   48.530; -844.297; -813.465
403.035;  232.068; -226.293;  -86.471
403.326;  311.784; -366.292; -384.474
403.617;  318.584;  204.701;  165.539
403.907;  353.676; -593.283; -679.490
404.198; 3597.318; -545.307; -599.446
404.489; 9133.607; -618.283; -588.491
404.779; 2559.178; -618.302; -660.456
405.070;  294.102;  -67.304; -174.451
405.360;  478.420; -259.293; -238.472
405.651;  465.316;  125.699;   98.542
405.942;  150.343;  209.714;  127.516
406.232;   75.985; -432.285; -413.487
406.523;  232.437;  641.706;  758.530
406.813;   43.770; -579.286; -644.484
407.104;  201.402;  261.708;  144.527
407.394;   60.236; -604.299; -591.462
407.685;  145.184;  336.715;  222.513
407.975;   52.681; -400.283; -382.490
408.265;   92.984; -134.289; -190.478
408.556;   71.663; -472.291; -459.475
408.846;  152.338;  474.706;  429.530
409.137;  102.270;   -1.288; -216.480
409.427;   64.360; -193.285; -271.487
409.717;   57.707; -776.273; -692.508
410.007;  149.352;    4.715; -170.486
410.298;  100.953; -360.295; -342.469
410.588;  101.582; -495.285; -510.486
410.878;   36.933; -792.287; -873.482
411.168;  118.844; -481.298; -478.463
411.459;  133.024; -295.283; -242.489
411.749;   77.086; -609.292; -507.474
412.039;   85.842; -755.289; -386.480
412.329;  215.757;   40.722;  132.501
412.619;  207.871;  -62.286; -148.485
412.909;  374.688;  639.711;  594.521
413.199;  311.735; -130.280; -251.495
413.490;  377.176;  521.710;  352.523
413.780;  205.864;-1013.279; -913.496
414.070;  387.780;  -46.276;  235.497
414.360;  407.802; -729.278; -666.498
414.650;  539.153; -726.288; -688.482
414.940;  741.064; -538.280; -441.496
415.230; 1228.074;   50.712;   74.519
415.520; 8560.245;  155.730;   66.486
415.809;34429.743; -305.281; -125.493
416.099;26147.243; -388.277; -229.501
416.389; 7762.044;  435.726;  236.494
416.679; 4473.346;   91.738;   85.473
416.969;  758.663; -527.287; -503.483
417.259;  653.767;  341.721;  171.503
417.549;  880.242;  522.718;  318.508
417.838; 2384.915; -205.268; -147.518
418.128; 8315.383;  650.710;  492.522
418.418; 6830.490; -491.272; -579.509
418.708; 4510.619;    9.726;  -48.506
418.997;17749.989; -474.275; -480.505
419.287;18093.653; -733.273; -790.507
419.577;17794.923; -160.283; -123.489
419.866;56614.216; -588.277; -498.501
420.156;55175.540; -242.270;  -55.513
420.446; 9268.562; -112.263;  -26.526
420.735;  882.558; -376.271; -446.512
421.025;  909.076; 1830.722;  315.502
421.314;  557.280; -203.271; -226.512
421.604;  703.782;   89.732;  233.484
421.893;  446.151; -705.271; -602.511
422.183;  270.912; -487.263; -461.526
422.472;  398.853;  -36.271; -107.511
422.762;  411.687; -416.266; -379.521
423.051;  265.356; -916.276; -916.503
423.341;  335.630; -491.273; -439.507
423.630;  394.544; -121.265;   15.477
423.919;  439.688;   58.725;   49.495
424.209;  487.594;  -31.263;   56.473
424.498;  623.487;   68.732;  161.483
424.787; 1484.345; -535.267; -601.518
425.077; 4342.418;   34.735;   29.478
425.366; 4817.150; -734.262; -744.528
425.655;13618.531;  639.727;  259.493
425.945;34795.456; -313.247; -268.554
426.234;18511.703;  117.741;  300.467
426.523; 7288.734;  -86.259; -350.534
426.812; 9958.557;  107.734;  159.480
427.101;14999.502; -127.269; -323.515
427.390;17607.920;  -55.270;  -86.514
427.680; 2607.258; -624.257; -411.538
427.969;  497.496; -330.255; -301.540
428.258;  358.298; -385.257; -477.536
428.547;  506.970;  449.728;  397.490
428.836;  787.390; -421.253; -398.543
429.125; 1036.786; -199.259;  -72.534
429.414;  791.193; -330.251; -294.548
429.703; 4531.743; -231.251; -213.548
429.992;13988.272; -938.250; -828.549
430.281; 8891.478; -397.264; -331.524
430.570;  596.706;  -21.252;   32.454
430.859;  421.733;  279.741;  352.466
431.148;  404.126;  636.752;  631.446
431.437;  306.831;  391.748;  367.454
431.725;  200.300; -544.257; -481.536
432.014;  208.674; -845.253; -756.545
432.303;  411.843; -149.239; -105.569
432.592;  577.386; -460.263; -178.525
432.881; 1428.603; -601.248; -437.554
433.169; 9506.547; -343.255;  -61.540
433.458;19331.584;  445.765;  540.424
433.747; 7593.682; -397.261; -289.529
434.036;  961.364; -275.242; -280.564
434.324; 2903.512; -395.249; -379.551
434.613; 5264.606;   40.757;  159.437
434.902; 1502.281;  333.760;  439.433
435.190;  286.916;   75.761;  295.431
435.479;  174.809;  -52.245;   83.441
435.767;   98.794; -411.244; -427.561
436.056;  199.659; -340.242; -294.563
436.345;  484.484; -372.240; -223.568
436.633;  450.032;   60.750;  383.450
436.922;  207.061;  208.760;  414.432
437.210;  230.947; -194.236;    1.426
437.499;  558.106; -583.235; -432.576
437.787;  622.971; -339.236;  -10.574
438.075;  185.698;   56.761;  162.430
438.364;  205.926;  -44.238;  250.429
438.652;  129.253; -286.226; -138.592
438.941;   66.709;    3.770;  269.415
439.229;  -25.572; -665.252; -466.545
439.517;   24.841; -160.234;  -85.577
439.806;  -14.403; -501.225; -290.595
440.094;  148.201;  377.766;  650.421
440.382;   29.230; -653.233; -302.580
440.670;   46.931; -361.235; -285.576
440.959;    7.293; -347.223; -170.599
441.247;   43.323; -151.229; -109.587
441.535;   41.289; -266.235;   31.423
441.823;   -9.453; -497.234; -305.578
442.111;  151.803;  173.771;  327.412
442.400;  292.333; -628.245; -335.559
442.688;  567.575; -111.234; -620.579
442.976;  272.699; -786.213; -450.617
443.264;   37.330; -324.224; -364.597
443.552;   49.079; -258.226;   51.408
443.840;  135.563;  602.765;  876.423
444.128;  103.854;  265.767;  269.420
444.416;  -15.419; -694.228; -312.588
444.704;   18.929; -465.219;  -92.605
444.992;   58.607;   -0.226;  240.407
445.280;   12.635; -517.230;  -94.585
445.568;   13.578; -694.212; -396.618
445.856;  141.934; -174.221;  357.398
446.143;  249.074;  -54.220;   -7.604
446.431;  239.011;  -25.228;  625.411
446.719;  163.402;  489.783;  675.391
447.007;  145.403;  481.769;  705.416
447.295;  164.089;  597.777;  871.402
447.583;   82.120; -464.229;  -34.587
447.870;  103.081; -434.221; -202.601
448.158;  236.284; -104.230;  129.415
448.446;  153.925; -800.219; -338.604
448.733;  147.381;   13.776;  269.403
449.021;  194.103;   60.788;  341.382
449.309;  176.346; -296.210;  208.379
449.596;  235.847;  128.783;   59.392
449.884;  189.823; -571.222; -325.600
450.172;  272.767; -756.227; -406.590
450.459;  631.754;  645.786;  780.387
450.747; 3778.845; -411.218; -147.608
451.034;12196.537;  493.772;  889.411
451.322; 9831.082; -413.214; -170.614
451.609;  756.208;  292.777;  508.403
451.897;  874.797; -550.203; -183.634
452.184; 2700.214; -622.223; -400.598
452.472; 2422.696;   97.792;  269.375
452.759;  349.276;  512.781;  864.395
453.047;   69.100; -407.212; -125.617
453.334;   21.535; -732.219; -216.606
453.621;   34.235; -438.214; -161.615
453.909;  101.037;   13.796;  384.368
454.196;  108.492; -299.199; -123.641
454.483;  235.537;  317.798;  540.364
454.771;  140.175; -215.208;  196.374
455.058;   40.379; -316.207;  102.374
455.345;  140.658;   71.807;  344.347
455.632;  119.833; -128.207;  235.373
455.919;   59.094;  -82.196;  182.354
456.207;  -51.378; -774.198; -450.642
456.494;   -8.948; -475.200;  -66.639
456.781;    9.482; -399.202; -198.635
457.068;   60.716; -253.206;  -29.628
457.355;   -7.658; -698.206; -401.629
457.642;   -7.526; -552.205; -290.630
457.929;   19.823; -778.194; -417.651
458.216;  115.875; -575.212; -354.617
458.503;  397.028; -173.193;  -19.652
458.790;  419.748; -864.208; -630.625
459.077;  392.613;  -77.202;  110.364
459.364; 1198.339; -350.195; -210.649
459.651; 2530.963;  -46.206;  220.372
459.938; 1142.111; -864.209; -665.623
460.225;  119.767;  132.799;  276.363
460.512;  -41.659; -836.197; -688.645
460.799;  112.519;  -32.218;  320.392
461.086;   90.883; -370.200; -251.640
461.372;   15.473; -509.198; -279.642
461.659;   68.271; -165.196;  108.354
461.946;   33.502; -445.193;  -54.651
462.233;  210.855;  842.800;  888.361
462.519;  495.901; -814.201; -464.639
462.806; 1515.141; -768.197; -497.645
463.093; 1310.977; -445.191;  -66.656
463.380;   19.576; -920.186; -824.664
463.666;   46.268; -259.197;  -18.646
463.953;  110.933; -406.195; -243.648
464.239;  277.558; -173.195;  -77.648
464.526;  417.821;  413.806;  743.350
464.813;  322.866; -565.190; -304.658
465.099;  346.703;  606.807;  607.348
465.386;  253.233;  903.807;  921.348
465.672;    5.816; -694.197; -522.645
465.959;   37.162; -598.188; -520.662
466.245;    4.408; -468.193; -359.652
466.532;   61.030; -109.195;   63.352
466.818;   27.726; -357.186; -216.664
467.104;   -9.975; -488.182; -415.672
467.391;  -18.682; -628.189; -459.658
467.677;   26.730; -289.186;    9.335
467.964;  -19.949; -682.189; -471.660
468.250;   35.534; -331.186; -160.665
468.536;   82.069;   90.811;  180.341
468.822;  -15.527; -821.184; -574.668
469.109;  146.722;  351.827;  471.311
469.395;  206.594;  729.808;  787.346
469.681;  237.548;   46.811;  156.341
469.967; 1807.629; -699.188; -382.660
470.254; 4048.188; -494.188; -306.662
470.540; 2516.644; -601.196; -476.646
470.826;  374.488; -488.181; -397.675
471.112;  416.977;  288.816;  113.331
471.398;   97.808; -253.183;  -58.670
471.684;   47.472; -626.177; -447.680
471.970;   22.643; -918.180; -981.675
472.256;   32.468; -521.192; -441.654
472.542;   21.285; -499.171; -434.691
472.828;   20.770; -743.182; -607.672
473.114;   28.413; -380.166; -283.700
473.400;   12.992; -504.175; -293.684
473.686;   22.195; -452.166; -400.701
473.972;   47.260; -230.174; -131.687
474.258;  -17.703; -925.173; -843.689
474.544;  328.837; -183.178;   -2.679
474.830;  514.744;  -65.175;   45.316
475.116;  802.217; -123.190; -196.658
475.401; 1082.970; -558.180; -467.676
475.687;  289.594; -725.180; -718.676
475.973;  -13.271; -673.181; -770.673
476.259;  240.522;  736.825;  764.315
476.544;  541.907; -539.176; -437.682
476.830; 1361.405; -398.172; -322.690
477.116; 1227.730; -430.177; -336.682
477.401;  170.395;  346.820;  358.324
477.687;   -0.158; -289.175; -405.684
477.973;   36.984;   21.819;   28.326
478.258;    4.170; -448.163; -348.706
478.544;   45.390;   21.815;   61.334
478.829;  -61.483; -818.171; -738.692
479.115;  -58.320; -749.172; -651.690
479.401;  -23.146; -444.174; -449.686
479.686;   54.043; -253.180;  -74.676
479.972;   -8.107; -886.178; -776.680
480.257;   37.865; -258.166;  -65.700
480.542;   30.547; -614.170; -469.693
480.828;  238.715; 1288.824; 1392.317
481.113;  -33.238; -464.176; -426.683
481.399;  -10.301; -236.161; -202.711
481.684;  -43.536; -620.166; -462.700
481.969;   18.365; -158.159;  -73.713
482.255;   -8.790; -439.169; -285.695
482.540;   -8.781; -569.178; -441.680
482.825;   23.320; -395.187; -404.663
483.110;  118.038;  -85.169; -105.696
483.396;  372.341; -840.157; -652.718
483.681;  743.035;  543.826;  730.313
483.966;  301.458; -696.160; -700.712
484.251;   -6.741; -404.174; -310.687
484.536;    6.877; -356.165; -378.703
484.822;   23.412; -205.173; -218.687
485.107;   -3.963; -599.152; -502.726
485.392;  130.809;  662.836;  541.296
485.677;   84.450;  354.832;  163.302
485.962;  120.463;  160.843;  270.283
486.247;   98.080;  -14.162;   -8.707
486.532;   64.566; -178.166; -325.701
486.817;  171.667;  381.839;  431.291
487.102;  139.867; -453.154; -514.722
487.387; 1093.718; -637.156; -652.718
487.672; 1933.215; -154.164;  -38.705
487.957; 1187.476; -394.160; -286.711
488.241;  320.632; -290.150; -314.729
488.526; 1199.964; -280.152; -148.726
488.811; 1972.996; -881.177; -818.680
489.096; 1398.245; -666.154; -702.723
489.381;  713.559;    3.847;  162.275
489.666;  656.673; -428.161; -510.710
489.950;  202.499;  558.846;  627.277
490.235;  -22.099; -480.151; -458.728
490.520;  -36.053; -756.161; -723.710
490.804;  -27.479; -827.156; -736.719
491.089;    6.726; -469.149; -299.732
491.374;   36.538; -132.164;  -75.704
491.658;  -24.185; -817.147; -717.735
491.943;  123.044; -657.152; -609.727
492.227;  218.137; -178.155;  -38.721
492.512;   44.863; -294.157; -341.717
492.797;  -67.581; -713.149; -716.731
493.081;  -46.882; -588.147; -598.735
493.366;  -33.401; -751.161; -635.711
493.650;  235.533;  831.859;  917.254
493.935;   83.664; -648.147; -447.734
494.219;  -16.558; -778.142; -687.743
494.503;  -31.287; -585.150; -487.730
494.788;   74.427;   46.842;   74.285
495.072;  135.159;  184.850;  434.271
495.356;  233.605; -463.148; -343.733
495.641;  531.401; -812.146; -736.736
495.925;  464.177; -976.156; -903.719
496.209;   13.376; -599.149; -451.732
496.494;  -27.357; -763.142; -544.744
496.778;   13.442; -364.154; -360.722
497.062;  -41.124; -819.156; -627.719
497.346;   -2.747; -869.160; -640.711
497.631;  180.734;  580.852;  560.266
497.915;   78.864;  -64.145;  175.261
498.199;   51.716; -341.157; -277.718
498.483;   51.887; -562.152; -508.725
498.767;  261.685;  301.850;  300.271
499.051;  283.173; -126.149; -100.732
499.335;   71.846; -693.149; -739.731
499.619;  -44.095; -381.129; -423.767
499.903;    5.660; -272.155;  -65.721
500.187;   17.025; -588.153; -316.724
500.471;   27.718; -796.152; -595.727
500.755;   85.223;   62.839;  -96.710
501.039;   14.211; -270.155; -357.721
501.323;   69.610;  -21.141;  264.254
501.607;    9.871; -447.163; -503.706
501.891;    5.143; -607.156; -512.718
502.174;  -33.622; -726.144; -585.741
502.458;   51.423;   89.849;  370.273
502.742;   57.363; -180.138; -191.751
503.026;  197.789; -412.147; -254.734
503.310;  318.264; -437.159; -375.713
503.593;  189.491; -464.147; -325.735
503.877;  140.337; -232.133; -156.760
504.161;  190.153;    2.847;  -50.724
504.444;  172.530; -841.158; -710.716
504.728;  746.762; -487.164; -522.704
505.012; 1103.906; -257.150;  -76.729
505.295;  794.524; -417.161; -212.711
505.579;  819.351; -256.156; -496.719
505.862; 1234.560; -555.145; -333.738
506.146; 1252.842; -681.159; -758.714
506.429;  561.542;  568.841;  461.286
506.713;  125.228; -732.151; -667.728
506.996;  487.741;   90.846;  295.278
507.280;  553.131; -633.165; -474.703
507.563;  376.833; -469.155; -261.721
507.847;  168.226; -423.153; -112.724
508.130;  192.350; -665.161; -456.711
508.413;  233.659; -758.167; -577.700
508.697;  403.810; -151.167;   12.300
508.980;  257.078; -422.153; -312.724
509.263;   16.204; -466.155; -450.720
509.547;   62.306; -124.150;   82.271
509.830;   46.627; -172.160;  140.289
510.113;   99.526;  128.844;  298.281
510.396;   58.210; -530.152; -300.725
510.680;   62.036; -818.145; -812.738
510.963;  211.521;  184.846;  180.277
511.246;  133.965; -493.150; -357.730
511.529;  290.392; -482.145;  -83.739
511.812;  622.158; -250.134;   10.241
512.095;  480.749; -740.151; -396.728
512.378;   99.821; -317.147; -245.736
512.661;   65.923; -703.137; -623.753
512.944;   77.945; -750.142; -637.744
513.227;   92.444; -170.137; -171.752
513.510;   51.852; -479.144; -671.741
513.793;   36.165; -485.140; -435.747
514.076;  171.805;  -43.127;  -39.771
514.359;  172.502; -294.149; -135.732
514.642;  149.073; -442.142; -567.744
514.925; 1120.438;  581.860;  561.253
515.208; 1642.754; -498.134; -443.758
515.491; 1052.770; -276.133; -182.761
515.773;  588.282; -410.143; -337.742
516.056; 3272.430;  249.864;  409.246
516.339; 4291.310; -754.136; -652.755
516.622; 2048.888; -518.150; -488.730
516.904;  593.465;  882.857;  975.257
517.187;  218.668; -730.138; -523.752
517.470;  436.589; -568.143; -510.743
517.752;  705.763; -624.136; -470.756
518.035;  593.728; -708.139; -725.749
518.318;  642.010; -799.136; -744.755
518.600; 3969.924; -300.132; -325.762
518.883; 5500.047;  310.858;   88.256
519.165; 2511.809; -585.138; -426.751
519.448;  441.824;  -61.132;  -19.762
519.730;  209.589; -573.126; -415.773
520.013;  256.291;  588.867;  664.240
520.295;  334.010;  -94.134;  -15.759
520.578;  677.365; -335.131; -305.764
520.860;  945.449; -254.132;   56.238
521.143;  680.541; -763.135; -584.756
521.425;  592.154; -251.125; -279.775
521.707;  998.405; -622.127; -380.771
521.990; 2815.906; -199.127;  167.229
522.272; 3222.317; -116.140;   -4.748
522.554; 1199.683; -237.143; -157.742
522.836;  267.557;  -24.134;   99.241
523.119;  198.162; -496.148; -189.734
523.401;  184.048; -448.130; -314.766
523.683;  153.798; -865.137; -693.753
523.965;  409.865;  408.862;  260.248
524.247;  418.705;   54.878;  170.220
524.529;  339.285; -451.134; -367.759
524.812;  485.125;   -3.130;  191.234
525.094; 1412.739; -773.138; -631.751
525.376; 2205.040; -143.124;   78.223
525.658; 1344.857; -441.136; -339.754
525.940;   90.411; -805.131; -671.764
526.222;   27.536; -188.136;  -88.755
526.504;   65.083; -190.131;   32.237
526.786;   30.113; -960.133; -647.760
527.068;  135.472; -124.123;  -67.778
527.349;    6.553; -865.137; -774.754
527.631;  124.899; -137.132;   22.238
527.913;  232.754; -664.127; -450.771
528.195;  324.621; -761.125; -639.774
528.477;  386.504;  -93.134;  -30.758
528.759;  274.650; -648.130; -522.766
529.040;  144.920; -569.123; -293.778
529.322;   85.724; -235.125;  -10.774
529.604;   99.803;  -47.130;   93.233
529.886;   55.363; -546.126; -302.773
530.167;   83.868;  232.870;  192.235
530.449;   58.845;    1.853;   63.265
530.731;   50.654; -572.122; -459.779
531.012;  137.229; -513.120; -216.784
531.294;  119.126; -118.116;  -43.792
531.575;  201.854;  290.875;  538.225
531.857;  146.673; -548.135; -266.757
532.138;  126.983; -113.141;   40.254
532.420;  127.193;  294.865;  403.244
532.701;   79.991; -722.133; -751.760
532.983;  212.919;  232.867;  182.239
533.264;   60.836; -243.126;  175.228
533.546;  -37.914; -491.136; -508.755
533.827;   31.037;  173.867;   -1.759
534.109;   35.947; -352.135;  -80.757
534.390;  106.529; -725.132; -582.762
534.671;  304.893; -270.135;  -82.756
534.953;  215.899; -751.123; -611.779
535.234;   53.883; -426.117; -255.789
535.515;  -55.861; -891.119; -735.785
535.796;   -0.101; -431.128; -193.770
536.078;  -93.910;-1050.124; -904.777
536.359;    6.150;  -22.123;    3.221
536.640;  -20.327; -480.125; -197.774
536.921;  169.834;  225.871;  143.232
537.202;  545.561;  -87.138;  -16.751
537.483;  687.014;  251.869;  377.236
537.764;  264.068;   17.870;   98.235
538.045;  -38.172; -543.134; -371.758
538.326;  -20.864; -596.129; -447.768
538.607;   68.856; -686.127; -476.771
538.888;  294.143;   98.879;    5.218
539.169;  305.161; -704.122; -535.781
539.450;  411.058;  236.871;   16.233
539.731;  269.598; -361.121; -182.783
540.012;  157.279;  199.880;  412.216
540.293;   94.233;   82.876;  158.224
540.574;  -10.824; -895.113; -717.796
540.855;  505.096;  435.879;  377.218
541.136;  686.408;   47.878;  139.220
541.416;  386.726; -161.130; -220.766
541.697;  316.209; -274.131; -170.763
541.978; 1693.620; -270.135; -315.757
542.259; 2108.256; -211.127; -236.771
542.539;  946.769; -191.116; -186.790
542.820;  219.204;  461.875;  480.225
543.101;  142.613;  -52.145;  -77.738
543.381;   52.156; -638.127; -591.771
543.662;  356.753;  159.873; -254.771
543.942;  989.826; -751.127; -830.770
544.223; 1676.185;  193.878;  161.219
544.504; 1099.165; -275.124; -182.777
544.784;  866.813; -592.126; -408.773
545.065; 2533.223;  104.884; -254.791
545.345; 2963.739;  227.881;   14.215
545.626; 1966.100;  -14.113; -108.796
545.906; 1379.117;   77.869;   98.235
546.186;  602.944;   92.874;  -95.773
546.467;  313.268;   99.877;  -95.778
546.747;  515.193;  264.884;  327.210
547.027;  578.713;   91.876;  111.223
547.308;  563.525; -376.127; -530.770
547.588;  582.112;  299.871;  371.232
547.868;  265.069;  458.870;  588.235
548.149;  266.682;  609.885;  593.207
548.429;  250.479; -347.127; -299.771
548.709;  375.478; -645.120; -461.784
548.989;  814.001;   84.882;   88.213
549.269; 3333.247;   10.868;  139.239
549.550; 7771.823;  215.877;  117.222
549.830; 6989.347; -758.111; -556.799
550.110; 1392.831; -468.110; -320.801
550.390; 1341.829; -128.122;  -56.779
550.670; 1901.695; -868.114; -783.795
550.950; 1320.346; -509.121; -471.782
551.230;  270.166;  549.879;  460.218
551.510;   43.644; -381.121; -326.782
551.790;   80.465; -173.109; -127.803
552.070;  328.143;  940.877; 1181.223
552.350;  726.044; -492.119; -377.786
552.630;  977.688;   -2.121;   77.219
552.909;  573.024;  181.884;   73.209
553.189;  392.355;  -49.132;   33.237
553.469;  366.718; -703.119; -514.786
553.749;  356.858; -469.127; -357.772
554.029;  279.863;   33.883;  -24.790
554.308;  261.312; -154.115;  -37.794
554.588;  145.973; -196.128; -204.770
554.868;  140.272; -366.121;  -47.782
555.147;  272.659; -114.115;  -46.793
555.427;  940.001; -260.116; -250.792
555.707; 6256.981; -284.115; -200.793
555.986; 7713.301; -719.111; -538.800
556.266; 3958.092;   23.884;   72.210
556.546;  244.319; -888.121; -675.782
556.825;  445.592; -657.114; -556.794
557.105; 2890.021; -125.128;   17.230
557.384; 3430.322;  122.884;  187.209
557.664; 1345.801; -717.116; -508.792
557.943;  242.896; -557.121; -411.782
558.222;  323.304; -345.118; -344.788
558.502;  429.635; -116.115;  -76.793
558.781;  739.280;  194.885;  499.208
559.061;  669.029; -232.118; -227.788
559.340;  486.210;  302.883;  353.211
559.619; 1158.092;   93.884;  148.210
559.899; 1730.562; -239.117; -266.789
560.178; 1548.760; -778.115; -593.793
560.457; 4844.714; -623.117; -562.790
560.736; 6876.027; -472.111; -482.800
561.015; 4540.893; -500.128; -502.769
561.295;  569.139;  180.893;  215.193
561.574;  445.582;  119.885;  116.207
561.853;  728.870;  274.891;  303.197
562.132;  798.388;  -45.114;  182.206
562.411;  691.539;  396.879;  553.219
562.690;  290.230; -592.115; -458.792
562.969;  191.559;  472.888;  630.203
563.248;  548.661; 2966.878; 2487.219
563.527;  475.051; -290.111; -408.800
563.806;  677.179; -650.127; -521.771
564.085;  705.007; -297.105; -206.810
564.364;  439.866; -594.117; -405.790
564.643;  816.414; -276.121; -223.781
564.922; 2993.663;  221.890;  397.198
565.201; 3140.342; -640.109; -700.803
565.479; 1341.028; -297.115; -219.792
565.758;  572.096; -810.128; -712.770
566.037;  772.919; -155.109; -100.803
566.316;  362.073; -286.116;  -28.791
566.595;   84.356;  -17.115;  -12.793
566.873;  111.704; -166.111;  -79.801
567.152;  -29.767; -490.113; -590.797
567.431;   51.768; -113.116;    6.210
567.709;   54.114; -344.107; -212.807
567.988;  484.292; -810.114; -769.794
568.266;  854.906; -160.115;  -68.793
568.545;  664.189; -644.100; -514.819
568.824;  963.502;  160.885;  356.208
569.102;  984.317; -351.114; -235.794
569.381;  428.401; -492.116; -407.792
569.659;   -3.846; -553.113; -553.796
569.938;  133.834; -743.122; -465.780
570.216;  203.897; -225.109; -225.804
570.494;   21.821; -632.114; -572.795
570.773;   38.169;  202.879;  114.218
571.051;   51.196; -373.123; -357.778
571.330;  116.276; -221.113; -174.796
571.608;   78.210; -181.098; -173.823
571.886;  -22.231; -671.111; -581.799
572.164;  -23.153; -739.121; -621.782
572.443;   -7.238; -562.105; -512.811
572.721;  -15.061; -399.117; -289.790
572.999;    8.832; -280.117; -168.788
573.277;  102.054;  379.894;  620.191
573.555;  458.582;   94.894;   37.190
573.834; 2256.831;  -86.117; -114.788
574.112; 2538.117;  880.893;  811.193
574.390;  788.703; -143.111;  -96.801
574.668;   34.584;  -91.112;  -61.797
574.946;   16.407; -165.106; -187.810
575.224;   20.617;   71.891;  -16.803
575.502;   -7.355; -200.116; -204.791
575.780;  -61.789; -767.112; -829.798
576.058;  246.927; 1589.889; 1004.200
576.336;   -0.667; -210.110; -129.801
576.614;  -35.364; -511.112; -340.798
576.891;  162.537; -711.115; -823.794
577.169;  834.757; -158.108; -285.805
577.447;  918.541;  169.893;  202.193
577.725;  385.216;  629.888;  854.201
578.003;   40.389;  -71.112; -371.798
578.280;  147.498; -208.104; -242.812
578.558;  107.235; -450.115; -422.793
578.836;  161.770; -210.114; -145.795
579.114;  109.784; -630.112; -670.797
579.391;   81.308;   -6.117;  -18.789
579.669;  -47.562; -595.114; -704.794
579.947;  286.213; -326.107; -127.806
580.224;  579.762; -692.107; -524.806
580.502;  513.242;  127.893;   76.193
580.779;   49.740;  -42.117;   75.210
581.057;  -46.528; -584.109; -470.804
581.334;  -86.609; -726.102; -695.815
581.612;   37.333;   54.895;  511.190
581.889;  -18.968;  -83.101; -129.818
582.167;  -33.276; -298.099; -190.821
582.444;  -76.775; -845.102; -814.817
582.721;  109.651;  657.899;  715.183
582.999;  109.921; -326.100; -167.821
583.276;  954.601; -812.123; -713.779
583.553; 1227.044; -364.102; -294.816
583.831;  458.494; -607.104; -631.812
584.108;   84.054;  349.892;  174.195
584.385;   28.840; -122.102;  -98.815
584.662;  -20.996; -651.111; -828.801
584.940;   54.278;  204.889;  204.199
585.217;   -4.547;  -73.113; -303.796
585.494;   57.039;   71.890;  118.198
585.771;  350.048; -250.109; -354.804
586.048;  806.078; -196.113;  -76.796
586.325;  549.607; -721.110; -773.801
586.602;  135.373;  230.896;  213.188
586.879;   40.391; -499.100; -580.820
587.156;  105.959; -156.105; -331.810
587.433;   24.548; -701.102; -667.817
587.710;  109.987;  152.888;  234.202
587.987;  466.690; -264.105; -236.811
588.264; 1174.214;  315.888;  387.202
588.541; 1967.526;  -61.104;   26.187
588.818; 4057.526;   72.892;  171.196
589.095; 3478.921; -163.104; -174.812
589.371;  566.146; -459.109; -414.804
589.648;   69.892; -581.107; -437.807
589.925;   94.971; -517.114; -621.795
590.202;  106.536; -741.112; -607.798
590.478;  160.642; -166.105;  -73.811
590.755;  425.508; -241.108; -132.806
591.032; 3852.335; -741.110; -699.802
591.308; 5474.759; -732.094; -790.831
591.585; 2770.159; -573.110; -560.802
591.862;  344.599;-1056.102; -950.817
592.138;  161.330; -475.108; -474.805
592.415;  270.099; -486.104; -495.813
592.691; 2199.121;  460.896;  518.188
592.968; 2908.013; -208.098; -123.824
593.244; 1432.568; -695.116; -595.790
593.521;  112.550; -105.102;  -42.817
593.797;   59.131; -810.122; -720.780
594.074;  559.978; -611.096; -588.826
594.350;  971.566;  828.905;  729.172
594.626;  480.204; -303.111; -283.801
594.903;  238.850; -643.101; -645.817
595.179;  291.254;  243.896;  418.187
595.455;   31.394; -136.107; -150.807
595.731;   16.380;  -19.103;  -38.814
596.008;   -7.928; -464.111; -434.800
596.284;   88.744; -187.100; -242.820
596.560;  147.742; -501.093; -493.833
596.836;  347.286; -173.105;  -70.810
597.112;  594.131; -582.108; -437.805
597.388;  475.350;  -49.097;  -48.826
597.665;  160.631;  437.887;  530.203
597.941;  -28.798; -572.089; -658.839
598.217;   61.414; -323.110; -293.802
598.493;  413.700;   61.891; -204.804
598.769;  815.787; -175.100;  -50.819
599.045;  517.060; -490.108; -562.806
599.321;  122.593; -193.100; -261.820
599.597;  258.324; -355.109; -476.804
599.872;  749.876;  409.896;  429.187
600.148;  605.352;  -61.097; -172.826
600.424;  450.265;   91.893;  202.193
600.700;  417.493; -170.107; -280.807
600.976;  236.145; -442.097; -464.825
601.252;  435.495; -226.109; -272.803
601.527;  429.152; -833.104; -840.813
601.803;  268.768; -453.105; -404.812
602.079;  308.437; -124.100; -118.819
602.354;  927.428; -620.092; -531.835
602.630; 1302.103; -140.113; -482.796
602.906; 3549.957; -910.101; -863.818
603.181;10611.369; -627.119; -534.786
603.457; 8823.349;   98.903; -278.826
603.733; 1321.949; -605.120; -626.783
604.008; 1459.732; -245.106; -164.810
604.284; 4843.577; -636.101; -580.817
604.559; 4155.366;   -3.112;  -42.799
604.835;  796.686; -163.105; -225.810
605.110;  700.399; -732.099; -892.821
605.385; 1075.670;  224.907;  267.167
605.661; 1066.195; -625.095; -729.829
605.936; 1967.035; -664.108; -737.806
606.211; 1590.863;  -17.103; -170.815
606.487;  354.115; -329.114; -376.794
606.762;  100.369; -791.119; -745.786
607.037;    8.536; -501.105; -433.810
607.313;    0.212; -589.096; -574.828
607.588;   15.907; -375.106; -137.810
607.863;   86.406;  -28.101; -143.818
608.138;  257.587;  513.890;  516.198
608.413;  118.429; -576.099; -592.822
608.688;  115.630; -203.108; -267.805
608.964;  341.775; -509.106; -218.809
609.239;  419.008; -107.105; -212.810
609.514;  382.542;  281.895;  240.188
609.789; 1055.298; -187.104; -716.812
610.064; 1370.085; -435.096; -609.827
610.339; 1439.171; -855.109; -799.804
610.614; 1978.343; -131.100; -315.820
610.889; 1070.543;  215.895;  107.188
611.163;  106.619; -407.104; -591.812
611.438;  154.092;   81.886; -167.794
611.713;   75.302; -467.101; -499.817
611.988;  135.455; -144.101; -328.818
612.263;   48.691; -771.102; -717.815
612.538;  313.377;  385.887;  251.204
612.812;  357.820; -832.100; -911.820
613.087;  252.760; -358.098; -338.823
613.362;   -0.857; -497.107; -557.807
613.637;   58.909;  261.897;  138.186
613.911;   16.879; -256.092; -345.835
614.186;  233.191; -249.107; -292.807
614.460; 1200.767; -842.081; -758.854
614.735; 1293.480;  -55.087;  -17.843
615.010;  282.543;   43.912;  -82.841
615.284;  376.055;  360.892;  246.195
615.559;  653.278; -792.092; -955.835
615.833;  463.852;  -76.099;  -87.822
616.108;   51.042; -225.090; -390.837
616.382;  202.957;  274.913;  402.156
616.656;  291.117; -241.090; -232.837
616.931;  832.302; -785.099; -700.822
617.205; 1738.928; -973.104; -979.813
617.480; 1581.727;  -91.125;    6.225
617.754;  310.474; -396.125; -128.774
618.028;   77.688; -369.129; -382.768
618.302;  115.803;   73.892;  -25.805
618.577;   -9.390; -371.103; -518.815
618.851;  -28.383; -399.109; -600.803
619.125;  -27.640; -335.134; -378.759
619.399;   -1.472; -244.104; -374.813
619.673;  -27.247; -330.115; -515.792
619.947;  -15.430; -333.114; -448.795
620.222;   13.980; -198.110; -204.801
620.496;   30.321;  -47.121;  -96.782
620.770;   64.411; -187.122;  -93.781
621.044;  317.459;  323.895;  346.190
621.318; 1193.250; -653.120; -614.783
621.592; 1069.047; -430.121; -409.783
621.866;  663.842; -476.112; -572.799
622.140;   85.495; -207.116; -356.791
622.413;   90.847;  138.889;  112.200
622.687;    0.277; -746.101; -492.817
622.961;   48.803; -130.108; -143.805
623.235;   -7.852; -633.111; -661.800
623.509;  -69.583; -816.105; -848.811
623.783;   15.339;  -12.107;   48.193
624.056;   14.501; -254.120; -280.783
624.330;   86.984;   63.888;   -3.797
624.604;  106.816; -271.116; -355.790
624.877;  137.236;  180.890;   26.198
625.151;   95.264; -249.114; -238.794
625.425;  -21.545; -150.103; -283.814
625.698;  -44.513; -367.119; -374.785
625.972;  -60.086; -799.110; -765.802
626.245;   88.893;  685.884;  484.210
626.519;  -25.419; -426.120; -340.784
626.792;   -6.557; -192.107; -380.807
627.066;  -68.247; -485.122; -662.779
627.339;  -92.991; -736.110; -663.802
627.613;   72.979;  351.880;  148.216
627.886;   86.791;  187.891; -612.803
628.160;    4.249;  312.880; -161.783
628.433;  -66.370; -695.125; -703.775
628.706;  -58.269; -517.120; -615.784
628.979;   34.013;  296.876;  117.223
629.253;  -45.682; -785.119; -833.786
629.526;  636.236; -334.126; -253.772
629.799;  641.396; -641.123; -479.778
630.072;  338.790; -497.128; -516.769
630.346;    4.543;-1115.116;-1080.790
630.619;  744.744; -467.107; -545.808
630.892;  961.074;  709.889;  593.200
631.165;  492.953;  790.896;  679.187
631.438;  -24.611;-1092.112;-1055.798
631.711;   68.850;  453.877;  257.221
631.984;  -31.412; -523.117; -624.789
632.257;  -34.617; -636.117; -681.789
632.530;  -38.288; -412.119; -433.785
632.803;   42.886; -109.115;    7.207
633.076;  -45.308; -360.123; -422.777
633.349;   19.920;  173.872;  121.231
633.622;  -35.814; -187.119; -240.785
633.895; -101.474; -903.120; -823.783
634.167;  -50.211; -496.126; -525.773
634.440;   13.226;  -19.116; -137.792
634.713;   16.017;  -22.119; -120.786
634.986;   83.783;  593.871;  453.233
635.258;  -41.616; -507.115; -597.793
635.531;   97.079;  742.882; -343.788
635.804;  -23.289; -303.117; -318.789
636.077;  -87.454; -830.116; -852.791
636.349;   51.807; -586.115; -474.793
636.622;  468.935; 1695.874; 1392.228
636.894;  406.506; -474.120; -909.784
637.167;  315.478; -836.127; -789.771
637.439;   71.724; -278.128; -213.770
637.712;  -14.538; -312.126; -293.772
637.984;  -61.978; -635.116; -707.791
638.257;  485.343;  515.877;  488.222
638.529;  928.581; -881.125; -924.776
638.802;  407.115; -508.128; -449.769
639.074;  -86.090; -927.122; -952.781
639.346;  -97.975; -942.135; -930.757
639.619;   25.121;  -79.142; -319.744
639.891;   -9.047;  -83.122; -168.779
640.163;  -65.570; -689.122; -756.780
640.435;   37.657;  273.878;  103.220
640.708;   22.009;  -72.122; -132.780
640.980;    6.786; -366.122; -362.781
641.252;  269.439;  -25.121;  -71.781
641.524; 2497.566;  580.879;  573.219
641.796; 2682.743;-1094.121; -907.782
642.068;  485.995; -191.121; -300.782
642.340;  -48.253; -486.121; -566.783
642.613;   54.600;  294.880;  323.217
642.885;  -73.248; -787.120; -878.783
643.157;   -6.571; -810.120; -658.784
643.428;   86.356;  170.880;  218.216
643.700;  -49.742; -498.120; -425.784
643.972;  -29.964;  -16.119; -133.785
644.244;  -71.987; -474.119; -559.785
644.516;  -47.335; -250.119; -114.786
644.788;   63.367;  662.881;  548.214
645.060;  -24.681;  -12.119; -124.786
645.332;  -92.503; -525.118; -535.787
645.603;   22.424;  479.882;  342.213
645.875;  -75.349; -334.118; -369.787
646.147;  166.653; 1487.882; 1242.212
646.418;  -12.470; -931.117; -918.788
646.690;  346.333; -714.117; -715.789
646.962;  127.060; -413.117; -451.789
647.233;   -0.988;   15.883;   11.211
647.505;  -98.736; -595.117; -475.790
647.776;   32.141;  328.884;  229.210
648.048;   36.319; -248.116; -418.790
648.320;  -38.879; -752.116; -679.791
648.591; -142.627;-1055.116; -958.791
648.862;  -86.500; -505.116; -577.792
649.134;   26.653;  115.885;  198.208
649.405;   -8.795; -661.115; -618.792
649.677;  -25.018; -475.115; -598.793
649.948;   21.209; -181.115; -296.793
650.219;    8.536;  -37.115; -147.793
650.491;  -67.836; -431.114; -520.794
650.762; -107.684; -705.114; -731.794
651.033;  -83.732; -437.114; -424.795
651.304;  -62.930; -743.114; -728.795
651.576;  -39.928; -680.114; -645.795
651.847;  -34.025; -250.113; -140.796
652.118;  -30.073;  -32.113; -189.796
652.389; -105.296; -639.113; -722.796
652.660;  -13.044; -147.113;  -89.797
652.931; -131.392; -897.112; -871.797
653.202;  -56.689; -382.112; -541.798
653.473;  -52.912; -633.112; -533.798
653.744;  277.365; -595.112; -590.798
654.015;  265.467; -356.112; -303.799
654.286;  -45.056; -642.111; -663.799
654.557;  -21.103; -586.111; -521.799
654.828; -134.826;-1114.111;-1088.800
655.099;  -69.899; -404.111; -291.800
655.370;  -88.372; -427.111; -543.801
655.641; -124.845; -656.110; -714.801
655.911; -101.292; -618.110; -638.801
656.182;   38.860;  437.890;  387.198
656.453;   97.537;  830.890;  746.198
656.724;  -61.961; -466.110; -426.802
656.994;  -61.859; -553.109; -568.803
657.265;  -98.306; -862.109; -873.803
657.536;  -68.829; -500.109; -377.804
657.806;  -90.802; -561.109; -593.804
658.077; -118.525; -866.109; -950.804
658.347;  -75.423; -523.108; -598.805
658.618; -112.995; -646.108; -694.805
658.888;  -11.718;  -41.108;  112.195
659.159;  -76.066; -432.108; -548.806
659.429;   11.386; -292.108; -349.806
659.700;   56.838; -435.107; -390.807
659.970;   17.466; -370.107; -359.807
660.241;  110.843; -754.107; -921.807
660.511;  781.945; -147.107; -174.808
660.781;  225.847; -793.106; -748.808
661.052;  -24.326; -222.106; -381.808
661.322;  -14.323;   21.894;   -9.809
661.592;   17.004;  257.894;  148.191
661.862;  -65.494; -369.106; -382.810
662.133;  -83.142; -551.105; -502.810
662.403; -102.965; -770.105; -676.810
662.673;  -53.187; -256.105; -213.811
662.943;  -88.060; -612.105; -551.811
663.213;   19.692;  -85.105;  -81.811
663.483;  -64.906; -593.104; -568.812
663.753;  -44.054; -194.104; -152.812
664.023;  -11.251;   68.896;  -32.813
664.293;  -55.049; -319.104; -126.813
664.563; -100.972; -694.104; -648.813
664.833; -109.645; -743.103; -608.814
665.103; -117.568; -730.103; -793.814
665.373;  -98.865; -766.103; -806.814
665.643;  -28.263; -863.103; -918.815
665.913;  105.389; -534.103; -714.815
666.182;  269.391; -685.102; -719.816
666.452;  441.218;  -22.102;  -89.816
666.722;   39.471; -724.102; -784.816
666.992; -112.702; -948.102; -921.817
667.261;  -71.575; -824.102; -808.817
667.531;  285.327;  134.899;   45.183
667.801;  859.679; -440.101; -412.818
668.070;  309.207;  714.899;  697.182
668.340;  -77.216; -883.101; -840.819
668.609;  120.786;  588.900;  301.181
668.879;  -64.612; -490.100; -558.819
669.149;  -52.359; -539.100; -516.820
669.418;  -97.507; -698.100; -726.820
669.688;    6.745; -482.100; -666.820
669.957;  174.472; -423.099; -546.821
670.226;    3.449; -268.099; -331.821
670.496;  -83.048; -431.099; -635.822
670.765;  -69.996; -418.099; -501.822
671.034; -116.894; -872.099; -828.822
671.304;   -9.842;   55.902; -111.823
671.573; -129.140;-1085.098; -957.823
671.842;  163.513; -380.098; -294.823
672.112;  117.740; -692.098; -586.824
672.381;   42.642; -239.098; -214.824
672.650; -113.581;-1005.097;-1021.825
672.919;  -72.829; -631.097; -507.825
673.188;  -69.701; -681.097; -878.825
673.457; -126.224;-1101.097;-1143.826
673.726;  -63.872; -579.096; -646.826
673.995;  -18.145; -533.096; -479.826
674.265;   30.357; -263.096; -333.827
674.534;   44.485; -183.096; -235.827
674.802;   64.487; -618.096; -703.828
675.071; 1496.539; -886.095; -801.828
675.340; 6172.316; -464.095; -339.828
675.609; 2014.943;  103.905;   82.171
675.878;  198.046; -949.095; -893.829
676.147;   62.748;  -26.095;   -8.829
676.416;  152.975; -210.094; -294.830
676.685; 1079.877; 1000.906; -622.830
676.953;  217.729; -603.094; -452.831
677.222;  -10.693; -193.094; -273.831
677.491;  -19.666;  -24.094; -127.831
677.759;    0.711;   11.907;  172.168
678.028;    9.513; -279.093; -222.832
678.297;    1.640;   71.907;  197.168
678.565; -121.057; -898.093; -944.833
678.834;  -45.905; -311.093; -268.833
679.102;  -56.053; -411.092; -391.834
679.371; -129.626; -898.092; -727.834
679.639; -116.799; -797.092; -786.834
679.908; -121.571; -794.092; -724.835
680.176; -144.569; -895.091; -941.835
680.445;  -66.017; -346.091; -352.835
680.713;   -3.215;  -58.091;  -23.836
680.982;  -88.988; -523.091; -525.836
681.250;  -88.610; -578.091; -507.837
681.518;  -99.258; -534.090; -751.837
681.787;   22.819; -204.090; -167.837
682.055;  -23.829; -490.090; -422.838
682.323; -132.302; -993.090; -992.838
682.591;   79.026; -216.090; -538.838
682.859;  149.453;    9.911;  -35.839
683.128;   34.280;  232.911;  497.161
683.396; -134.968;-1102.089;-1122.840
683.664;  -28.616; -241.089;   21.160
683.932;   10.137;  144.911;  -76.840
684.200;  -74.486; -576.088; -320.841
684.468;  -22.884;  -73.088; -124.841
684.736;  -16.157; -214.088; -175.841
685.004;  -83.605;-1024.088; -982.842
685.272;   -0.952; -880.088; -774.842
685.540;  -40.250; -499.087; -557.843
685.808;  -49.298; -651.087; -682.843
686.076;  -69.346; -894.087; -969.843
686.343;  -32.944; -601.087; -815.844
686.611;   91.759; -195.087; -224.844
686.879;  665.711; -530.086; -553.844
687.147; 5006.613; -483.086; -480.845
687.414; 1458.240;  -12.086; -169.845
687.682;   76.017; -658.086; -757.846
687.950;  457.970;  259.915;  263.154
688.217;  115.922; -792.085; -760.846
688.485;   47.699; -632.085; -636.847
688.753;  843.001;  -11.085; -102.847
689.020;  376.479; -820.085; -851.847
689.288;  -62.969; -853.084; -787.848
689.555;  -21.117; -195.084; -148.848
689.823;  -31.815; -241.084; -345.849
690.090;  -59.013; -546.084; -651.849
690.358; -133.635; -877.084; -897.849
690.625;   22.317;  120.917;   45.150
690.892;  -64.331; -403.083; -369.850
691.160;  -16.054;   72.917;  -35.850
691.427;   18.398;  141.917;  130.149
691.694; -115.624; -855.083; -929.851
691.962; -118.947;-1177.082;-1060.852
692.229;   27.730;  127.918;   56.148
692.496;  134.707;  130.918;  -49.852
692.763;   51.284; -164.082; -201.853
693.031;  -27.688; -739.082; -716.853
693.298;    3.314; -509.081; -368.853
693.565;  447.716; -155.081; -163.854
693.832; 2012.193;   -5.081;   -9.854
694.099;  303.995; -643.081; -642.855
694.366;  -37.377; -882.081; -896.855
694.633;  -16.700; -920.080; -633.855
694.900;  757.552; 4367.920; -114.856
695.167;  628.404; -214.080; -380.856
695.434;  208.531; -646.080; -623.856
695.701;  260.234;  121.921;  -61.857
695.968;  680.211; -365.079; -361.857
696.234; 1214.063; -415.079; -646.858
696.501;12160.340; -776.079; -614.858
696.768; 6630.017; -554.079; -617.858
697.035;  408.495; -632.078; -667.859
697.302;   82.672; -448.078; -552.859
697.568;   47.324; -458.078; -497.859
697.835;    0.301; -683.078; -624.860
698.102;   -2.597; -498.078; -407.860
698.368;   99.031;  384.923;  396.139
698.635;   -4.442;  -47.077; -424.861
698.901;   12.885; -240.077; -348.861
699.168;  140.587; -534.077; -456.862
699.435;  140.989;  -72.077;  -13.862
699.701;  -78.683; -868.076; -764.862
699.968;   37.894;  144.924; -441.863
700.234;  -74.104; -783.076; -822.863
700.500;  -20.027; -448.076; -539.864
700.767;   12.150;   -1.075;   26.136
701.033; -102.447;-1015.075; -963.864
701.299;  -40.220; -450.075; -483.865
701.566;  122.607;  950.925;  763.135
701.832;   45.359;  -31.075;  -76.865
702.098;  -68.889;-1054.074;-1034.866
702.365;  -36.886;-1098.074;-1030.866
702.631;   40.241;-1038.074;-1063.867
702.897; 1841.193; -765.074; -676.867
703.163; 3322.770;  348.926;  254.133
703.429;  271.572; -256.073; -273.868
703.695;    6.100; -796.073; -792.868
703.961;   54.702; -214.073; -210.868
704.227;  -32.346; -630.073; -725.869
704.493;  145.881;  613.927;  510.131
704.759;    3.433; -565.072; -540.870
705.025;   49.086; -203.072; -194.870
705.291;   24.188; -666.072; -562.870
705.557;  209.565;  719.928;   34.129
705.823;   75.817; -742.072; -694.871
706.089;  206.944; -307.071; -326.871
706.355;  418.722; -315.071; -244.872
706.620; 6240.049; -776.071; -729.872
706.886;10029.126; -309.071; -362.873
707.152; 1073.953; -818.070; -973.873
707.418;   53.380;-1153.070;-1186.873
707.683;   31.508; -550.070; -530.874
707.949;  -11.340; -547.070; -578.874
708.215;   14.562; -129.070; -207.874
708.480;    7.564; -520.069; -420.875
708.746;  158.342;   68.931;   28.125
709.011;  -47.606; -578.069; -612.876
709.277;  -58.654; -538.069; -543.876
709.542;  -44.752; -428.069; -387.876
709.808;   10.950;  -59.068;   89.123
710.073;  -46.422; -577.068; -695.877
710.339;   -2.245; -242.068; -228.877
710.604;  160.332; -780.068; -845.878
710.869;  522.359; -277.068; -366.878
711.135;  -40.389; -715.067; -628.879
711.400;  -66.036; -507.067; -608.879
711.665;  -61.259; -404.067; -479.879
711.931;  -74.707; -661.067; -677.880
712.196;  -93.930; -876.067; -954.880
712.461;  192.922; -402.066; -490.880
712.726;  299.950; -727.066; -771.881
712.991;  -64.873; -647.066; -664.881
713.256;  -21.146; -350.066; -332.882
713.521;  -39.169; -417.065; -381.882
713.787;  -45.717; -454.065; -472.882
714.052;   -2.764; -214.065; -400.883
714.317;  -75.112;-1045.065; -981.883
714.581; 1256.490; -374.065; -268.883
714.846; 1958.467; -822.064; -888.884
715.111;  158.844;  261.936;  257.116
715.376;    7.297;  -86.064; -223.885
715.641;    8.274; -365.064; -367.885
715.906;  487.376;   15.936; -551.885
716.171;  215.228;  221.937;  209.114
716.436;   93.130;  -78.063; -104.886
716.700;  -96.792; -818.063; -692.886
716.965; -108.840; -794.063; -807.887
717.230;  -66.338; -339.063; -392.887
717.494;  -11.461;  -40.062; -134.888
717.759;  -79.034; -784.062; -640.888
718.024;   18.619;  269.938;  250.112
718.288;   73.021;  685.938;  395.111
718.553; -124.027; -803.062; -977.889
718.817; -121.150; -883.061; -899.889
719.082;  -30.348; -115.061; -125.890
719.346; -130.520;-1000.061; -947.890
719.611;  -37.718; -300.061; -255.891
719.875;  -71.816; -568.060; -537.891
720.140;  -43.014; -453.060; -603.891
720.404;   74.463; -136.060; -249.892
720.668; 1294.716; -475.060; -411.892
720.933;  555.968;  146.940;  137.108
721.197;  -73.305; -667.059; -600.893
721.461; -117.178; -851.059; -826.893
721.725;  -14.076;  -21.059; -250.894
721.990;  -55.348; -284.059; -204.894
722.254;  -14.696;  -26.059; -108.894
722.518;  -64.994; -286.058; -442.895
722.782;  -80.067; -743.058; -594.895
723.046;  159.410;  614.942;  570.105
723.310;   30.488;  374.942;  210.104
723.574;  -90.310; -654.058; -614.896
723.838;  -94.483; -576.057; -642.897
724.102;  -50.031; -226.057; -239.897
724.366; -124.729;-1032.057; -978.897
724.630;  -64.526; -749.057; -571.898
724.894;  -55.749; -722.057; -514.898
725.158;   -3.097;   38.944; -295.898
725.422;  -39.895; -394.056; -327.899
725.685;  -46.618; -441.056; -349.899
725.949;  -54.615; -566.056; -519.900
726.213;  -49.013; -732.056; -811.900
726.477;  343.364;-1020.055; -933.900
726.740;  253.841; -274.055; -104.901
727.004;  454.218; -384.055; -510.901
727.268; 4278.021; -442.055; -400.901
727.531; 1384.248; -961.055; -775.902
727.795;  -10.725; -713.054; -673.902
728.059;  -31.473; -552.054; -557.903
728.322;  -48.695; -841.054; -669.903
728.586;  103.632; -692.054; -701.903
728.849;  -48.816; -695.053; -756.904
729.112;  -92.914; -812.053; -912.904
729.376; -110.312; -959.053; -905.904
729.639;  -50.934; -536.053; -536.905
729.903;  -94.282; -733.053; -699.905
730.166;  -32.255; -437.052; -399.906
730.429;   -4.353; -317.052; -468.906
730.693;  -45.351; -355.052; -894.906
730.956;  241.727;  810.948;  651.093
731.219; 1036.054; -310.052; -103.907
731.482;  246.381;-1003.051; -894.907
731.745;  265.658; -794.051; -935.908
732.009;   39.485;  -30.051;   50.092
732.272;  -78.787; -904.051; -771.909
732.535;  -24.835; -300.051; -310.909
732.798; -124.683;-1083.050;-1166.909
733.061;  -43.831; -430.050; -456.910
733.324;   29.946;   31.950; -180.910
733.587;   73.924;  290.950;  365.090
733.850;  -41.099; -973.049;-1050.911
734.113;   62.528;   33.951;   32.089
734.376;   49.355; -328.049; -447.912
734.639;  278.432; 1188.951; 1011.088
734.901;  139.735; -180.049; -402.912
735.164;  738.337; -883.048; -837.913
735.427; 2054.489; -166.048; -355.913
735.690;  213.666; -205.048; -234.913
735.952;   23.718; -923.048; -925.914
736.215;   38.921;-1113.048;-1009.914
736.478;  118.098; -771.047; -774.915
736.740;  323.175;   33.953;  129.085
737.003;  935.477; -658.047; -672.915
737.266; 6064.829;  -94.047;   46.084
737.528;  712.657; -682.047; -660.916
737.791;  463.634; -316.046; -327.916
738.053;  991.011;  465.954;  649.083
738.316;13276.763; -162.046; -136.917
738.578;10821.315; -770.046; -736.918
738.841;  647.068; -382.046; -446.918
739.103;  305.320; -875.045; -777.918
739.365;  769.672;   79.955;  -69.919
739.628;   70.374; -884.045; -805.919
739.890;   20.051; -758.045; -710.919
740.152;    0.379; -692.044; -754.920
740.414;   27.956; -408.044; -359.920
740.677;   -9.642; -785.044; -634.921
740.939;    7.660; -587.044; -487.921
741.201;  458.062; -432.044; -572.921
741.463;  129.515; -689.043; -745.922
741.725;   55.892;  -21.043; -199.922
741.987;   80.269;  220.957;  116.078
742.249;   78.546; -751.043; -859.923
742.511;  377.198; -703.043; -794.923
742.773;  100.476; -546.042; -546.924
743.035;  155.678;  796.958;  533.076
743.297;   13.005; -963.042;-1013.924
743.559; 1078.507; -278.042; -262.925
743.821;  196.559; -735.042; -744.925
744.083;   37.612;  -44.041; -149.925
744.345;  -47.736; -869.041; -892.926
744.607;   75.766;   75.959;  122.074
744.868;  -19.607; -490.041; -554.927
745.130;  -74.580; -994.041;-1008.927
745.392;   79.348;   -1.040;  -44.927
745.653;   22.950; -411.040; -378.928
745.915;  189.552;  896.960;  631.072
746.177;   95.604;   35.960;  -43.928
746.438;   31.856; -428.040; -543.929
746.700;   16.309; -947.039; -988.929
746.961;   72.161; -659.039; -740.930
747.223;  209.888; -190.039;  -74.930
747.484;  178.890; -391.039; -471.930
747.746;  237.443;  -23.038; -106.931
748.007;  223.695; -647.038; -689.931
748.269;  470.197; -468.038; -440.931
748.530;  824.774; -852.038; -638.932
748.791;  406.676; -354.038; -420.932
749.053;  624.779;  286.963;  163.067
749.314;  686.231; -236.037; -169.933
749.575;  813.708; -945.037; -905.933
749.836; 1236.510; -217.037;   86.066
750.098; 3201.237;  -60.037;  -21.934
750.359;50826.965;  414.964;  555.066
750.620;15132.817; -121.036; -220.935
750.881; 1536.819; -585.036; -513.935
751.142; 1980.621; -950.036; -938.936
751.403;21575.423; -789.036; -705.936
751.664;11262.676;-1034.035; -999.936
751.925;  725.478; -175.035; -262.937
752.186;  417.555; -298.035; -278.937
752.447;  248.582; -590.035; -445.937
752.708;  139.609; -532.035; -648.938
752.969;   67.412; -566.034; -576.938
753.230;   48.239; -777.034; -672.939
753.491;   52.816; -650.034; -631.939
753.751;  117.618;  109.966;   19.061
754.012;  126.295;  258.967;  181.060
754.273;  118.398; -174.033;  -71.940
754.534;   57.775; -487.033; -580.940
754.794;  -37.448; -926.033; -911.941
755.055;  159.654; 1051.967;  881.059
755.316;   -1.794; -700.032; -566.942
755.576;    9.984; -606.032; -576.942
755.837;   -6.514; -527.032; -695.942
756.097;   -5.387; -530.032; -564.943
756.358;  -33.860; -725.032; -770.943
756.618;   -5.608; -705.031; -641.943
756.879;   39.395; -254.031; -349.944
757.139;  -92.078;-1098.031;-1116.944
757.400;  -20.751; -538.031; -553.945
757.660;    6.476; -365.031; -401.945
757.920;   59.778; -266.030; -228.945
758.181;   14.081; -468.030; -351.946
758.441;  -68.617; -870.030; -809.946
758.701;   -2.165; -308.030; -215.946
758.961;    5.512; -220.030; -278.947
759.222;  -42.611; -574.029; -502.947
759.482;  -49.533; -683.029; -723.948
759.742;  -55.906; -706.029; -547.948
760.002;   29.846;  -83.029; -143.948
760.262;   46.798;   50.972;  182.051
760.522;  -15.175; -498.028; -574.949
760.782;  -28.297; -738.028; -612.949
761.042;  -11.545; -618.028; -573.950
761.302;   60.282;   55.972;  -18.950
761.562;   53.209; -164.027; -154.951
761.822;  131.711; -710.027; -551.951
762.082;   -4.261;-1104.027;-1093.951
762.342;   71.066; -328.027; -403.952
762.601;  100.568; -567.027; -506.952
762.861;  459.845; -281.026; -207.952
763.121;  415.647; -406.026; -411.953
763.381; 6648.950; -499.026; -485.953
763.640; 8776.202; -139.026; -307.954
763.900;  384.554; -242.026; -203.954
764.160;  105.706; -458.025; -491.954
764.419;   13.883; -726.025; -782.955
764.679;  -54.014; -795.025; -726.955
764.939;   -6.512; -124.025; -210.955
765.198;  -56.260; -608.025; -563.956
765.458;  -64.133; -710.024; -612.956
765.717;  -74.881; -454.024; -590.957
765.976;  -49.728; -428.024; -411.957
766.236;  -52.851; -475.024; -610.957
766.495;   41.401;  260.977;   73.042
766.755;  -50.622;-1090.023; -987.958
767.014;   55.006; -594.023; -665.958
767.273;  -35.667; -373.023; -397.959
767.533;  -37.790; -228.023; -307.959
767.792;  -16.863; -151.022; -188.960
768.051;  -55.386; -228.022; -276.960
768.310;  -75.358; -546.022; -650.960
768.569;    1.569; -161.022;    4.039
768.828;  -12.029; -285.022; -363.961
769.088;  -97.902;-1050.021; -942.961
769.347;  -64.000; -755.021; -599.962
769.606;  -77.472; -876.021; -857.962
769.865;  -89.595;-1016.021;-1033.963
770.124;   13.657; -411.021; -336.963
770.383;  -14.716; -778.020; -910.963
770.641;   42.911; -398.020; -400.964
770.900;  -47.586; -953.020; -846.964
771.159;  -23.284; -851.020; -951.964
771.418;    8.593; -917.020; -779.965
771.677;  146.970; -224.019; -293.965
771.936;  194.647; -794.019; -865.966
772.194; 2087.775; -465.019; -437.966
772.453;12824.327; -213.019; -391.966
772.712;  979.654;  416.982;  329.033
772.970;  135.106;   32.982;   63.033
773.229;   97.333;  -22.018;  102.033
773.488;  -61.239; -814.018; -770.968
773.746;   70.888;  296.982;  335.032
774.005;    5.465;  190.983;  -22.969
774.263;   17.992;  243.983;  177.031
774.522;  -33.706; -422.017; -548.969
774.780;  -57.828; -484.017; -417.970
775.039;  -80.776; -551.017; -531.970
775.297;   -5.074; -135.016; -351.970
775.555;  -91.997; -489.016; -612.971
775.814; -116.370; -618.016; -570.971
776.072; -108.542; -749.016; -740.971
776.330;  -95.415; -630.016; -520.972
776.589; -116.938; -703.015; -721.972
776.847; -121.086; -645.015; -624.973
777.105; -158.359;-1016.015;-1032.973
777.363;  -83.456; -459.015; -454.973
777.621; -114.954; -660.015; -717.974
777.879;  -10.177;  -42.014;   32.026
778.138;  -92.125; -554.014; -717.974
778.396;  -83.648; -585.014; -526.975
778.654; -140.995;-1015.014; -970.975
778.912;  -57.493; -269.014; -371.976
779.170; -121.866; -880.013; -803.976
779.427; -144.014; -922.013; -897.976
779.685; -120.037; -880.013; -832.977
779.943;  -52.109; -654.013; -593.977
780.201; -144.807; -964.012; -883.978
780.459;  -99.930; -651.012; -610.978
780.717;  -72.228; -440.012; -390.978
780.974;  -90.401; -449.012; -490.979
781.232;  -67.023; -358.012; -338.979
781.490;  -59.771; -551.011; -472.979
781.747;  -79.419; -555.011; -476.980
782.005;   16.208;  462.989;  254.020
782.263; -151.265; -542.011;-1004.981
782.520;  -90.262; -326.011; -501.981
782.778; -152.635;-1013.010;-1051.981
783.035; -152.783; -962.010; -938.982
783.293;  -52.656; -248.010; -206.982
783.550;  -46.979; -134.010; -198.982
783.808; -121.601; -764.010; -776.983
784.065; -151.249; -745.009; -874.983
784.322;  -33.597;   25.991;  -86.984
784.580; -132.820; -915.009; -771.984
784.837;  -81.793; -392.009; -466.984
785.094; -121.715; -783.009; -762.985
785.352;  -58.463; -304.008; -404.985
785.609;  -63.086; -934.008; -839.985
785.866;  -60.209; -345.008; -401.986
786.123;  -45.181; -639.008; -583.986
786.380;  -84.679; -665.008; -604.987
786.637;  -40.427; -225.007; -380.987
786.895;   31.750; -456.007; -543.987
787.152;  -38.773; -135.007; -267.988
787.409;  -40.470; -123.007; -225.988
787.666;  -86.543; -299.006; -378.988
787.923; -109.341; -616.006; -695.989
788.179;  -94.114; -551.006; -584.989
788.436;  -97.187; -585.006; -585.990
788.693;  -21.484;  -92.006;  -87.990
788.950;  222.568; -125.005; -112.990
789.207;  412.445; -381.005; -372.991
789.464;  -39.203; -161.005; -301.991
789.720;   -3.201;  150.995;  110.009
789.977; -164.048;-1003.005; -671.992
790.234;  -26.821;   44.996;  -66.992
790.490; -129.869; -884.004;-1031.993
790.747;  -14.017;  -85.004;   22.007
791.004;    5.785; -426.004; -348.993
791.260;  -69.987; -430.004; -560.994
791.517;  -80.510; -843.003; -788.994
791.773;  -23.808; -379.003; -342.994
792.030;  -94.906; -596.003; -660.995
792.286;  -92.254; -686.003; -636.995
792.543;   -9.826;  -74.002; -159.995
792.799;  -40.724; -584.002; -382.996
793.055; -139.197;-1179.002;-1210.996
793.312;  -73.020; -827.002; -816.997
793.568;  -27.468; -746.002; -599.997
793.824;   16.285; -226.001; -284.997
794.081;   12.062; -447.001; -508.998
794.337;   80.989; -664.001; -561.998
794.593; 1152.691; -319.001; -271.999
794.849; 7285.018; -746.001; -772.999
795.105;  444.996; -270.000; -261.999
795.361;   26.223; -490.000; -457.000
795.617;  -33.375; -875.000; -945.000
795.873;  -33.975; -360.000; -407.000
796.129;  -20.650; -368.000; -306.000
796.385;   -5.225; -124.000; -156.000
796.641;   77.425;  412.000;  550.000
796.897;  -80.075; -666.000; -635.000
797.153;   73.125;  453.000;  357.000
797.409;  -87.450; -785.000; -868.000
797.665;  -55.500; -625.000; -732.000
797.921;  -66.200; -775.000; -762.000
798.176;  -27.450; -744.000; -747.000
798.432;  -17.225; -824.000; -596.000
798.688;  -34.025;-1174.000;-1078.000
798.943;  114.100; -165.000; -147.000
799.199;   50.175;-1005.000; -959.000
799.455;  258.925;  369.000;  316.000
799.710;  175.150; -813.000; -380.000
799.966;  396.400; -162.000; -160.000
800.221;  597.775; -638.000; -721.000
800.477;11550.500; -743.000; -710.000
800.732;12866.975; -773.000; -800.000
800.988;  774.375;  205.000;  -19.000
801.243; 1532.475; -454.000; -344.000
801.498; 7948.075; -814.000; -739.000
801.754;  520.850; -289.000; -163.000
802.009;  105.750; -257.000; -335.000
802.264;  -22.775; -967.000;-1033.000
802.520;   28.525;  222.000;   -3.000
802.775;  -33.875; -524.000; -359.000
803.030;   56.025;  395.000;  356.000
803.285; -104.900; -840.000; -903.000
803.540;  -34.775; -686.000; -699.000
803.795;   -5.775; -648.000; -583.000
804.051;  -27.625; -279.000; -346.000
804.306;   27.100;  168.000;  128.000
804.561;  195.150;  451.000;  362.000
804.816;  158.525;  714.000;  861.000
805.071;   22.750; -185.000; -280.000
805.325;  350.225; -257.000; -427.000
805.580;  -72.225; -841.000; -877.000
805.835;   -7.725; -204.000; -297.000
806.090;  -68.050; -760.000; -676.000
806.345;   -3.150; -344.000; -264.000
806.600;    3.600; -549.000; -632.000
806.854;   -1.600; -408.000; -538.000
807.109;    7.100; -493.000; -577.000
807.364;   25.600; -407.000; -328.000
807.618;   28.375; -415.000; -381.000
807.873;  102.475; -470.000; -494.000
808.128;  135.975; -257.000; -518.000
808.382;  156.450; -224.000; -332.000
808.637;  103.850; -440.000; -511.000
808.891;  225.750; -257.000; -180.000
809.146;  153.900; -902.000; -794.000
809.400;  339.975; -848.000; -923.000
809.654;  405.475; -779.000; -551.000
809.909;  601.950; -841.000; -927.000
810.163; 7162.825; -813.000; -651.000
810.418;23568.725; -940.000; -861.000
810.672; 1392.950; -685.000; -690.000
810.926;  768.950; -993.000; -973.000
811.180; 1277.750; -439.000; -372.000
811.434;27085.650;  240.000;  135.000
811.689;13963.125; -231.000; -365.000
811.943;  735.600; -936.000; -953.000
812.197;  340.175; -893.000; -671.000
812.451;  159.575; -379.000; -514.000
812.705;  -22.300; -809.000; -619.000
812.959;   10.375; -263.000; -388.000
813.213;    6.875; -283.000; -209.000
813.467;   60.350;  470.000;  253.000
813.721; -103.025; -764.000; -792.000
813.975;  -94.900; -826.000; -877.000
814.229;   52.975;  430.000;  353.000
814.482;  -44.850; -517.000; -566.000
814.736; -109.150; -766.000; -744.000
814.990; -124.450; -779.000; -872.000
815.244;  -38.025; -228.000; -285.000
815.497;  -84.825; -636.000; -601.000
815.751;  -19.300; -141.000;   82.000
816.005;  -75.975; -470.000; -586.000
816.258;  -55.350; -510.000; -363.000
816.512; -112.300; -693.000; -610.000
816.766;    3.375;  121.000;  157.000
817.019;   29.475;  148.000;  149.000
817.273;  -88.775;-1000.000; -802.000
817.526;  -19.975; -206.000; -173.000
817.779;   32.875;-1049.000; -960.000
818.033;  -10.275; -693.000; -807.000
818.286; -107.650; -725.000; -792.000
818.540;  -79.325; -403.000; -403.000
818.793;  -55.450; -402.000; -489.000
819.046;  -83.275; -582.000; -520.000
819.299;  -34.250; -157.000; -166.000
819.553;  -96.800; -552.000; -592.000
819.806; -149.575;-1016.000; -838.000
820.059;  -46.400; -334.000; -354.000
820.312;   28.150;  152.000;  185.000
820.565;  -10.000;  110.000;  -27.000
820.818;  -45.825;  -59.000; -173.000
821.071; -152.850;-1041.000; -957.000
821.324;  -89.150; -536.000; -540.000
821.577;  -99.775; -457.000; -483.000
821.830;  -66.025; -270.000; -172.000
822.083; -117.575; -733.000; -288.000
822.336;  -33.950; -261.000; -167.000
822.589; -122.950; -805.000; -688.000
822.842; -131.875; -875.000; -770.000
823.094; -168.075;-1076.000;-1114.000
823.347; -110.850; -925.000; -729.000
823.600;   32.725;  402.000;  187.000
823.853;  -37.375; -311.000; -267.000
824.105;  -60.275; -331.000; -575.000
824.358;  -91.925; -617.000; -716.000
824.611;   39.450;  234.000;   40.000
824.863;  -12.275; -612.000; -591.000
825.116;   59.125;  -33.000;   27.000
825.368;  151.550; -366.000; -372.000
825.621;  255.725; -186.000; -240.000
825.873;  157.800; -704.000; -737.000
826.126;  682.150; -669.000; -641.000
826.378;14216.775; -389.000; -505.000
826.630; 4677.425; -890.000; -898.000
826.883;  139.000; -754.000; -693.000
827.135;   94.875; -279.000; -270.000
827.387;  -75.025; -893.000; -839.000
827.639;  -18.550;  -86.000;   32.000
827.892; -114.725; -742.000; -582.000
828.144; -130.000; -848.000; -804.000
828.396;  -18.050;  104.000;  -80.000
828.648;  -98.250; -440.000; -333.000
828.900; -134.650; -702.000; -795.000
829.152;  -93.675; -684.000; -683.000
829.404;  -64.250; -215.000; -267.000
829.656;   -1.350;  321.000;  214.000
829.908;  -22.000;  393.000;  229.000
830.160; -163.400;-1064.000;-1047.000
830.412;  -73.250; -481.000; -430.000
830.664; -117.125; -557.000; -665.000
830.916;  -75.800; -268.000; -206.000
831.167; -160.525;-1073.000; -951.000
831.419; -122.775; -623.000; -566.000
831.671; -130.925; -764.000; -809.000
831.923;  -85.300; -311.000; -447.000
832.174;  -63.550; -273.000; -331.000
832.426; -102.200; -493.000; -582.000
832.678; -174.025;-1043.000;-1091.000
832.929; -147.550; -947.000; -935.000
833.181;  -20.525; -575.000; -677.000
833.432;  -33.800;  -59.000; -186.000
833.684;  -20.800;  112.000;  -27.000
833.935; -110.050; -610.000; -566.000
834.187; -120.500; -829.000; -823.000
834.438;  -45.250;  -58.000;  -25.000
834.689;  -58.200; -255.000; -123.000
834.941;  -48.850; -343.000; -244.000
835.192;  -85.825; -590.000; -533.000
835.443;  -84.825; -419.000; -506.000
835.695;  -16.875;  138.000;  -16.000
835.946;  -93.100; -608.000; -378.000
836.197;  -91.300; -599.000; -622.000
836.448;  -77.700; -528.000; -395.000
836.699;  -38.750; -253.000; -341.000
836.950;    7.300;   72.000;    7.000
837.201; -133.300;-1003.000; -987.000
837.452;  -30.475; -356.000; -170.000
837.703;  -96.500; -791.000; -737.000
837.954;  -10.275; -205.000; -365.000
838.205;  -43.750;-1029.000;-1008.000
838.456;  293.400; -196.000; -282.000
838.707;   55.850; -423.000; -519.000
838.958;   47.625; -634.000; -647.000
839.209;  449.025;   18.000;   40.000
839.460;  183.025; -439.000; -201.000
839.710;  235.325; -135.000; -297.000
839.961;  543.750;  730.000;  612.000
840.212;  455.075; -382.000; -497.000
840.462; 1338.600; -328.000; -277.000
840.713;21010.250; -571.000; -536.000
840.964;10977.875;  -62.000; -143.000
841.214;  733.300; -384.000; -624.000
841.465;  748.375; -214.000; -141.000
841.715;  688.150; -417.000; -380.000
841.966;  863.225; -746.000; -685.000
842.216; 9568.225; -330.000; -431.000
842.466;45282.000; -169.000; -313.000
842.717; 3387.625; -964.000; -952.000
842.967;  457.775; -635.000; -641.000
843.217;  404.125;   20.000;   28.000
843.468;  101.775; -104.000; -132.000
843.718;   -6.850; -718.000; -726.000
843.968;  -57.150; -837.000; -765.000
844.218;   63.500; -315.000; -262.000
844.469;   -9.675; -577.000; -561.000
844.719;  -95.700; -537.000; -682.000
844.969;  -90.025; -550.000; -580.000
845.219; -122.375; -814.000; -862.000
845.469;  -62.825; -392.000; -342.000
845.719; -132.275; -792.000; -884.000
845.969;   -3.925;  119.000;  174.000
846.219; -110.475; -738.000; -720.000
846.469;   19.300;  464.000;  432.000
846.718;  -28.675; -115.000;   31.000
846.968; -122.325; -827.000; -827.000
847.218;  -39.450; -224.000; -371.000
847.468;    7.225; -586.000; -555.000
847.718; -135.025; -827.000; -798.000
847.967; -129.050; -826.000; -915.000
848.217;  -64.475; -449.000; -569.000
848.467;  -48.750; -405.000; -376.000
848.716;  -88.150; -708.000; -725.000
848.966;   34.200; -372.000; -358.000
849.215;  -36.200; -428.000; -419.000
849.465;  -73.525; -785.000; -615.000
849.714; -116.000;-1132.000;-1150.000
849.964;  -46.325; -551.000; -613.000
850.213;    1.525; -393.000; -355.000
850.463;  107.925;  137.000;  340.000
850.712;   48.175; -542.000; -567.000
850.961;   68.175; -739.000; -678.000
851.211;  156.025; -513.000; -504.000
851.460;  249.750; -635.000; -650.000
851.709;  729.125;  -25.000;   18.000
851.958;11919.075; -912.000; -750.000
852.208;18731.775; -859.000; -879.000
852.457;  761.100; -181.000;  -13.000
852.706;  145.325; -791.000; -823.000
852.955;   74.950; -507.000; -528.000
853.204;  -50.875; -521.000; -461.000
853.453;  -52.200; -418.000; -458.000
853.702; -101.925; -660.000; -750.000
853.951;  -99.275; -532.000; -520.000
854.200; -114.625; -613.000; -562.000
854.449; -133.875; -695.000; -661.000
854.698;  -85.975; -340.000; -279.000
854.946;  -76.075; -181.000; -284.000
855.195; -147.475; -843.000; -868.000
855.444;  -81.025; -395.000; -420.000
855.693; -111.925; -345.000; -432.000
855.941; -103.375; -387.000; -516.000
856.190;  -36.475; -256.000; -382.000
856.439;  -99.700; -652.000; -703.000
856.687;  -57.875;  -99.000;  -72.000
856.936; -105.975; -621.000; -323.000
857.184; -170.825;-1067.000;-1020.000
857.433; -107.600; -423.000; -512.000
857.681; -139.600; -989.000; -953.000
857.930;  -67.875; -282.000; -433.000
858.178; -162.925; -856.000; -929.000
858.427; -140.575; -802.000; -781.000
858.675; -108.750; -377.000; -544.000
858.923; -108.675; -527.000; -819.000
859.172; -177.000;-1094.000;-1070.000
859.420;  -81.900; -339.000; -239.000
859.668; -125.100; -624.000; -628.000
859.916;  -18.550;  109.000;  115.000
860.164;  -94.575; -699.000; -603.000
860.413;  460.450; -878.000; -696.000
860.661;  508.775; -709.000; -577.000
860.909;  -80.150; -339.000; -325.000
861.157;  -77.125; -277.000; -444.000
861.405; -111.350; -534.000; -670.000
861.653;   32.625;  310.000;  310.000
861.901;  292.175; -543.000; -613.000
862.149;  114.425; -801.000; -824.000
862.396;  -71.550; -297.000; -187.000
862.644;  -87.050; -368.000; -347.000
862.892;  -27.625;   98.000;  138.000
863.140; -116.100; -549.000; -530.000
863.388; -157.100; -815.000; -759.000
863.635; -123.350; -642.000; -601.000
863.883;  -26.625;  231.000;  190.000
864.131;  -94.500; -288.000; -357.000
864.378; -119.600; -675.000; -540.000
864.626;  -85.000; -347.000; -415.000
864.873; -122.200; -556.000; -505.000
865.121; -135.900; -714.000; -799.000
865.368;  -47.450; -173.000;   75.000
865.616;  -32.850;  -33.000;  -40.000
865.863;  -76.500; -462.000; -506.000
866.111; -100.900; -795.000; -824.000
866.358;   40.125; -426.000; -420.000
866.605; 2282.550;  -64.000; -804.000
866.853; 3042.575; -621.000; -537.000
867.100;    1.950; -728.000; -775.000
867.347;  -79.250; -672.000; -611.000
867.594;  -59.400; -740.000; -714.000
867.841;  152.775;   97.000;   17.000
868.089; -147.750; -746.000; -698.000
868.336; -110.350; -477.000; -420.000
868.583; -141.475; -637.000; -741.000
868.830;  -46.650; -131.000; -170.000
869.077; -167.150; -859.000; -787.000
869.324; -124.175; -502.000; -458.000
869.571; -128.525; -398.000; -430.000
869.818; -121.350; -485.000; -439.000
870.065;  -96.450; -439.000; -513.000
870.311; -119.600; -456.000; -542.000
870.558; -110.125; -332.000; -311.000
870.805;  -73.700; -320.000; -384.000
871.052; -103.025; -494.000; -369.000
871.298;  -30.200; -204.000; -131.000
871.545;  -59.675; -151.000; -185.000
871.792;  -99.475; -173.000; -222.000
872.038;  -64.225;   43.000; -126.000
872.285; -125.025; -496.000; -387.000
872.532;  -94.900; -357.000; -387.000
872.778;    7.300;  556.000;  403.000
873.025; -106.600; -384.000; -359.000
873.271;   10.925;  501.000;  578.000
873.517;    6.775; -133.000; -209.000
873.764;  -10.100; -193.000;  -80.000
874.010;  -62.125; -143.000; -230.000
874.257;  -48.150;  123.000;   90.000
874.503; -128.375; -579.000; -479.000
874.749;  -71.850;   31.000;  275.000
874.995;  -66.000;  -80.000;  -20.000
875.242; -114.600; -540.000; -478.000
875.488; -102.450; -414.000; -439.000
875.734;  -49.275; -106.000; -234.000
875.980;  330.250; -872.000;-1032.000
876.226;  703.900; -157.000; -255.000
876.472;    1.450;  343.000;  237.000
876.718;  -33.025;  184.000;  158.000
876.964;  -46.300;   56.000;   55.000
877.210; -142.400; -547.000; -677.000
877.456; -123.650; -630.000; -557.000
877.702; -161.450; -821.000; -832.000
877.948; -102.400; -377.000; -497.000
878.193;   11.275;  361.000;  255.000
878.439;  -78.500; -487.000; -472.000
878.685; -101.225; -272.000; -343.000
878.931; -121.950; -618.000; -676.000
879.176;  -84.800; -201.000; -201.000
879.422; -166.725; -933.000; -820.000
879.668;   74.475;   10.000;   79.000
879.913;  252.500;   53.000;  137.000
880.159;  -43.225; -112.000;  -17.000
880.404;  -50.775; -152.000; -162.000
880.650;  -37.275;   91.000;  141.000
880.895; -151.075; -670.000; -710.000
881.141; -118.975; -454.000; -428.000
881.386; -138.175; -503.000; -658.000
881.631;  -94.600; -311.000; -166.000
881.877;  -22.700;  112.000;  -13.000
882.122; -133.975; -684.000; -600.000
882.367;  -82.375; -136.000; -186.000
882.612;  -88.400;  -80.000; -176.000
882.858; -184.700; -877.000; -823.000
883.103;  -97.850; -297.000; -267.000
883.348; -145.975; -759.000; -852.000
883.593; -144.875; -677.000; -602.000
883.838;  -49.625; -311.000;  -24.000
884.083;   57.175;  353.000;  288.000
884.328;  -84.550; -564.000; -545.000
884.573;  -48.900; -196.000; -143.000
884.818;  301.675; -694.000; -531.000
885.063;  390.775; -348.000; -315.000
885.308;  -85.425; -475.000; -398.000
885.553;  -18.500;  245.000;  325.000
885.797; -127.275; -545.000; -615.000
886.042;  -62.575;    8.000;   58.000
886.287;  -97.775; -253.000; -211.000
886.532;  -55.500;   26.000;  204.000
886.776; -104.625; -407.000; -525.000
887.021; -140.825; -621.000; -574.000
887.265; -143.100; -685.000; -689.000
887.510; -124.600; -557.000; -496.000
887.755;  -85.950; -194.000; -164.000
887.999; -137.300; -552.000; -575.000
888.244;  -60.800;  -58.000;  161.000
888.488;  -11.775;  371.000;  393.000
888.732; -123.250; -368.000; -520.000
888.977; -128.325; -622.000; -567.000
889.221; -145.800; -683.000; -659.000
889.465; -108.550; -422.000; -566.000
889.710;  -76.750;  -56.000; -299.000
889.954;   -5.925;  579.000;  467.000
890.198; -150.325; -584.000; -707.000
890.442; -148.275; -716.000; -712.000
890.687; -153.300; -800.000; -753.000
890.931;  -91.675; -273.000; -210.000
891.175; -122.675; -502.000; -500.000
891.419;  -74.350; -105.000; -110.000
891.663;  -86.850; -239.000; -112.000
891.907; -157.375; -801.000; -545.000
892.151; -168.725; -920.000; -815.000
892.395; -115.400; -274.000; -387.000
892.638;  -28.125;  408.000;  291.000
892.882; -178.675; -780.000; -867.000
893.126;   12.200;  758.000;  558.000
893.370;  -90.650; -167.000; -168.000
893.614; -139.875; -714.000; -715.000
893.857;  -93.275; -183.000; -197.000
894.101; -122.725; -527.000; -631.000
894.345;  -67.025;  300.000;  150.000
894.588;    7.450;  569.000;  380.000
894.832;  -87.700; -178.000;  -84.000
895.075;  -87.850;   15.000;  -92.000
895.319; -128.325; -552.000; -420.000
895.563; -111.250; -413.000; -353.000
895.806; -154.125; -628.000; -741.000
896.049;  -41.500; -576.000; -368.000
896.293;  135.900;  527.000;  405.000
896.536;  -25.025; -465.000; -468.000
896.779;  -57.800; -149.000;   -1.000
897.023; -125.750; -751.000; -714.000
897.266;  -27.100;  325.000;  269.000
897.509; -172.050; -900.000; -901.000
897.752;  -42.600;  149.000;  171.000
897.996; -181.025; -972.000; -864.000
898.239;  -56.650;  168.000;  102.000
898.482; -123.675; -431.000; -453.000
898.725;  -28.725;  101.000;   53.000
898.968; -140.275; -609.000; -744.000
899.211;  -93.275; -513.000; -361.000
899.454;  -99.550; -633.000; -539.000
899.697;  -57.700;   90.000;  -43.000
899.940; -163.800; -761.000; -757.000
900.182; -113.325; -335.000; -405.000
900.425;  -99.250; -150.000; -298.000
900.668;  -39.175;  491.000;  350.000
900.911; -104.525; -292.000; -345.000
901.154;  -47.225;  141.000;   -3.000
901.396; -145.250; -407.000; -412.000
901.639; -128.650; -430.000; -496.000
901.882; -173.975; -790.000; -809.000
902.124;  -68.800;  -29.000; -143.000
902.367; -108.575; -315.000; -361.000
902.609; -119.725; -476.000; -453.000
902.852;  -90.975; -108.000; -260.000
903.094; -119.950; -458.000; -337.000
903.337;  -50.700;  -26.000;   53.000
903.579; -118.150; -228.000; -441.000
903.821; -138.600; -597.000; -744.000
904.064;  -65.100;   85.000;  127.000
904.306;  -78.300; -126.000; -166.000
904.548; -102.050; -152.000; -366.000
904.790;  -83.550; -195.000; -340.000
905.033; -137.525; -625.000; -577.000
905.275; -117.350; -513.000; -524.000
905.517;   58.775;  468.000;  256.000
905.759;    4.575; -667.000; -761.000
906.001;  -84.625; -322.000; -369.000
906.243;  -37.425; -162.000; -224.000
906.485;  187.175; -265.000; -207.000
906.727;  265.900; -499.000; -542.000
906.969;    3.925;  -30.000; -135.000
907.211;  205.275; -316.000; -382.000
907.453;  483.700; -188.000; -237.000
907.695;   98.350; -158.000; -385.000
907.936;   45.300;  818.000;  706.000
908.178;  -54.750;   92.000; -135.000
908.420;  -76.975; -111.000; -162.000
908.662; -139.500; -633.000; -682.000
908.903;  -74.725; -208.000; -123.000
909.145;  -56.275; -240.000; -305.000
909.386;    9.900;  315.000;  280.000
909.628;   38.425;  363.000;  397.000
909.870;   -1.250;   29.000;  264.000
910.111;  -82.725; -809.000; -949.000
910.353;   28.275; -123.000; -161.000
910.594;   16.425; -574.000; -606.000
910.835;   86.175; -265.000; -326.000
911.077;  161.425; -503.000; -604.000
911.318;  282.925; -505.000; -471.000
911.559;  484.575; -577.000; -880.000
911.801; 1284.700; -284.000; -280.000
912.042; 9215.100;  -50.000; -159.000
912.283;28210.700;  404.000;  371.000
912.524; 5433.725; -396.000; -457.000
912.765;  553.200; -193.000;   79.000
913.006;  255.550; -307.000; -338.000
913.247;   76.325; -270.000; -290.000
913.488;   15.725;  -43.000;   30.000
913.729;  -86.325; -373.000; -373.000
913.970;  -60.425;  -96.000; -292.000
914.211;  -77.575; -160.000; -198.000
914.452;  -48.375; -118.000;  -11.000
914.693;    8.350;  510.000;  592.000
914.934;    9.075;  510.000;  440.000
915.175;  -63.625;   53.000;  -95.000
915.415;  -82.350; -137.000;   27.000
915.656;  -67.900;  -28.000;  192.000
915.897;  -93.800; -252.000;  -82.000
916.137;  -82.300;   74.000;   -9.000
916.378; -125.475; -573.000; -517.000
916.619;  -83.300; -159.000;  -63.000
916.859;  -30.875;  303.000;  330.000
917.100;  134.125; 1655.000; 1070.000
917.340;   38.800;  930.000;  728.000
917.581;   43.425;  965.000;  789.000
917.821;   17.200; -171.000;  143.000
918.061;   68.600; -199.000;  -72.000
918.302;  -28.625; -152.000; -211.000
918.542;   -9.900;  -22.000;    3.000
918.782;   62.750;  369.000;  377.000
919.023;  200.175;  360.000;  427.000
919.263; 1950.425; 8131.000;  202.000
919.503; 1728.450; -137.000;  -54.000
919.743;  929.525;  390.000;  266.000
919.983;  508.025; -134.000;  -26.000
920.223;  125.225;  135.000;   14.000
920.463;  174.200;  631.000;  554.000
920.703;  170.525;   84.000;   39.000
920.943;  231.575; -110.000;   90.000
921.183;  301.650; -414.000; -405.000
921.423;  613.300;  307.000;  546.000
921.663;  912.500; -174.000; -257.000
921.903; 1862.100;  237.000;  173.000
922.143; 9652.700;  372.000;  389.000
922.383;39851.900;  158.000;  115.000
922.622;16954.975; -120.000;  -15.000
922.862; 1741.350;  796.000;  785.000
923.102;  623.900;  -51.000;   33.000
923.341;  272.550;   59.000;   74.000
923.581;  133.825;  450.000;  360.000
923.821;   41.750;  301.000;  398.000
924.060;   28.975;  351.000;  193.000
924.300;  -35.450;  -16.000; -128.000
924.539;   -2.200;  584.000;  473.000
924.779;   21.150;  812.000;  597.000
925.018;  -41.075;  247.000;  353.000
925.257;   -5.950;  595.000;  666.000
925.497;  -30.950;  447.000;  412.000
925.736;  -59.975;  -35.000;  102.000
925.975;    3.275;  687.000;  669.000
926.214;   25.650;  907.000;  850.000
926.454;   14.925;  706.000;  757.000
926.693;  -37.475;  419.000;  543.000
926.932;   37.200; 1021.000;  825.000
927.171;   63.450; 1107.000; 1044.000
927.410;   59.425; 1144.000;  967.000
927.649;   24.550;  924.000;  742.000
927.888;   -5.050;  590.000;  564.000
928.127;   -4.900;  680.000;  678.000
928.366;   17.575;  842.000;  826.000
928.605;   57.675;  831.000;  737.000
928.844;  279.800; 1451.000; 1393.000
929.083;  846.900;  770.000;  613.000
929.321;  483.350; 1335.000; 1359.000
929.560;  108.625; 1158.000; 1122.000
929.799;   -7.725;  574.000;  475.000
930.038;   80.975; 1025.000; 1394.000
930.276;  -37.400;  334.000;  397.000
930.515;    9.350;  827.000;  681.000
930.753;   -6.025;  614.000;  589.000
930.992;  -16.750;  664.000;  717.000
931.230;   -1.150;  847.000;  847.000
931.469;  174.550; 2162.000;  892.000
931.707;   78.025;  840.000;  751.000
931.946;   61.200; 1278.000; 1344.000
932.184;   62.425; 1437.000; 1175.000
932.423;   57.075; 1265.000;  963.000
932.661;   70.425; 1296.000; 1428.000
932.899;   45.600;  987.000;  821.000
933.137;   18.325;  754.000;  564.000
933.376;  169.175; 1664.000; 1335.000
933.614;  207.400; 1759.000; 1196.000
933.852;   59.575; 1357.000; 1171.000
934.090;  157.975; 1722.000; 1747.000
934.328;  106.525; 1252.000; 1457.000
934.566;  106.050; 1431.000; 1110.000
934.804;  153.075; 1263.000; 1309.000
935.042;  512.750; 1861.000; 1850.000
935.280; 1998.825; 2088.000; 2063.000
935.518; 2256.500; 2113.000; 2007.000
935.756;  470.625; 2481.000; 2316.000
935.994;  187.925; 1808.000; 1751.000
936.231;  377.450; 2890.000; 2950.000
936.469;  207.675; 2367.000; 2378.000
936.707;  164.575; 2220.000; 2167.000
936.945;  234.900; 2825.000; 2882.000
937.182;  187.850; 2679.000; 2741.000
937.420;  307.500; 3602.000; 3031.000
937.657;  437.550; 3365.000; 3478.000
937.895;  403.850; 3331.000; 3488.000
938.133;  309.175; 3540.000; 3528.000
938.370;  341.325; 3896.000; 4191.000
938.607;  401.800; 4488.000; 4205.000
938.845;  542.575; 5587.000; 5549.000
939.082;  464.000; 5387.000; 5177.000
939.320;  508.225; 5799.000; 5728.000
939.557;  646.325; 6549.000; 6491.000
939.794;  710.050; 7285.000; 7097.000
940.031;  928.900; 8421.000; 8368.000
940.269; 1162.750; 9552.000; 9107.000
940.506; 1156.675;10901.000;10507.000

