
Integration time [ms]: 100.000
Averaging Nr. [scans]: 40
Smoothing Nr. [pixels]: 0
Data measured with spectrometer [name]: 2101013U2
Wave   ;Sample   ;Dark     ;Reference
[nm]   ;[counts] ;[counts] ;[counts] 

394.013;   53.656; -450.257; -315.536
394.305;  223.729; -461.258; -419.536
394.596; 1118.625; -676.269; -527.514
394.887; 2745.692; -796.268; -654.518
395.178; 1055.897;  145.736;   11.476
395.470;   79.334; -210.263; -356.526
395.761;  200.557;  305.734;  394.479
396.052;  311.624; -545.284; -306.489
396.343;  331.394; -557.276; -454.503
396.634;  115.138; -200.279; -290.497
396.926;  123.264; -618.268; -565.517
397.217;  131.524;   11.725;  -17.504
397.508;   56.640; -366.273; -154.507
397.799;   41.313; -555.279; -571.497
398.090;   10.832; -973.280; -902.495
398.381;  133.498;   11.708;  -11.473
398.672;   -7.375; -585.292; -742.473
398.963;   36.044; -348.279; -373.498
399.254;  111.309;   54.709; -209.475
399.545;  -20.222;-1017.266; -883.520
399.836;   68.833; -407.277; -343.501
400.127;   53.774; -205.295; -209.468
400.418;   63.384; -423.274; -392.506
400.709;   69.644; -359.281; -333.493
401.000;   55.588; -268.291; -309.476
401.290;  105.261;  225.698;  115.545
401.581;   71.257; -166.286; -228.485
401.872;   12.271; -542.298; -486.462
402.163;   55.892; -313.296; -252.467
402.454;   82.184; -123.291; -163.475
402.744;   89.708; -844.297; -813.465
403.035;  447.365; -226.293;  -86.471
403.326;  598.327; -366.292; -384.474
403.617;  383.641;  204.701;  165.539
403.907;  248.355; -593.283; -679.490
404.198; 2430.039; -545.307; -599.446
404.489; 6346.310; -618.283; -588.491
404.779; 2063.514; -618.302; -660.456
405.070;  238.193;  -67.304; -174.451
405.360;  352.067; -259.293; -238.472
405.651;  367.350;  125.699;   98.542
405.942;  201.452;  209.714;  127.516
406.232;  263.916; -432.285; -413.487
406.523;  457.559;  641.706;  758.530
406.813;   88.654; -579.286; -644.484
407.104;  348.322;  261.708;  144.527
407.394;  192.892; -604.299; -591.462
407.685;  152.166;  336.715;  222.513
407.975;   67.208; -400.283; -382.490
408.265;  122.049; -134.289; -190.478
408.556;   66.456; -472.291; -459.475
408.846;  178.485;  474.706;  429.530
409.137;   93.732;   -1.288; -216.480
409.427;   57.291; -193.285; -271.487
409.717;   53.593; -776.273; -692.508
410.007;  137.285;    4.715; -170.486
410.298;   96.552; -360.295; -342.469
410.588;   72.388; -495.285; -510.486
410.878;   39.543; -792.287; -873.482
411.168;  113.649; -481.298; -478.463
411.459;  132.578; -295.283; -242.489
411.749;   57.930; -609.292; -507.474
412.039;   65.881; -755.289; -386.480
412.329;  215.901;   40.722;  132.501
412.619;  203.304;  -62.286; -148.485
412.909;  383.102;  639.711;  594.521
413.199;  334.082; -130.280; -251.495
413.490;  398.567;  521.710;  352.523
413.780;  165.811;-1013.279; -913.496
414.070;  338.020;  -46.276;  235.497
414.360;  359.947; -729.278; -666.498
414.650;  420.639; -726.288; -688.482
414.940;  540.936; -538.280; -441.496
415.230;  948.636;   50.712;   74.519
415.520; 6128.099;  155.730;   66.486
415.809;24189.594; -305.281; -125.493
416.099;18507.435; -388.277; -229.501
416.389; 5218.957;  435.726;  236.494
416.679; 3063.387;   91.738;   85.473
416.969;  523.323; -527.287; -503.483
417.259;  454.813;  341.721;  171.503
417.549;  704.392;  522.718;  318.508
417.838; 1664.266; -205.268; -147.518
418.128; 5516.973;  650.710;  492.522
418.418; 4596.599; -491.272; -579.509
418.708; 3120.757;    9.726;  -48.506
418.997;11666.603; -474.275; -480.505
419.287;12198.014; -733.273; -790.507
419.577;11529.102; -160.283; -123.489
419.866;38206.658; -588.277; -498.501
420.156;38960.595; -242.270;  -55.513
420.446; 6945.330; -112.263;  -26.526
420.735;  867.939; -376.271; -446.512
421.025;  827.146; 1830.722;  315.502
421.314;  677.712; -203.271; -226.512
421.604; 1428.809;   89.732;  233.484
421.893;  821.908; -705.271; -602.511
422.183;  224.855; -487.263; -461.526
422.472;  394.860;  -36.271; -107.511
422.762;  469.609; -416.266; -379.521
423.051;  260.496; -916.276; -916.503
423.341;  330.866; -491.273; -439.507
423.630;  419.565; -121.265;   15.477
423.919;  409.852;   58.725;   49.495
424.209;  383.310;  -31.263;   56.473
424.498;  511.339;   68.732;  161.483
424.787; 1090.920; -535.267; -601.518
425.077; 3388.814;   34.735;   29.478
425.366; 4803.191; -734.262; -744.528
425.655; 9960.416;  639.727;  259.493
425.945;21809.946; -313.247; -268.554
426.234;12075.039;  117.741;  300.467
426.523; 5096.719;  -86.259; -350.534
426.812; 6951.955;  107.734;  159.480
427.101;10305.705; -127.269; -323.515
427.390;12973.699;  -55.270;  -86.514
427.680; 2941.589; -624.257; -411.538
427.969;  470.200; -330.255; -301.540
428.258;  324.280; -385.257; -477.536
428.547;  543.428;  449.728;  397.490
428.836; 1278.441; -421.253; -398.543
429.125; 1818.971; -199.259;  -72.534
429.414;  806.389; -330.251; -294.548
429.703; 3145.264; -231.251; -213.548
429.992; 9421.142; -938.250; -828.549
430.281; 6138.973; -397.264; -331.524
430.570;  575.329;  -21.252;   32.454
430.859;  558.169;  279.741;  352.466
431.148;  422.767;  636.752;  631.446
431.437;  294.454;  391.748;  367.454
431.725;  164.182; -544.257; -481.536
432.014;  144.123; -845.253; -756.545
432.303;  392.918; -149.239; -105.569
432.592;  613.104; -460.263; -178.525
432.881; 1043.943; -601.248; -437.554
433.169; 6267.326; -343.255;  -61.540
433.458;12613.277;  445.765;  540.424
433.747; 5252.672; -397.261; -289.529
434.036;  881.419; -275.242; -280.564
434.324; 2114.430; -395.249; -379.551
434.613; 3673.987;   40.757;  159.437
434.902; 1208.508;  333.760;  439.433
435.190;  569.267;   75.761;  295.431
435.479;  307.644;  -52.245;   83.441
435.767;  118.777; -411.244; -427.561
436.056;  209.364; -340.242; -294.563
436.345;  373.785; -372.240; -223.568
436.633;  379.300;   60.750;  383.450
436.922;  262.963;  208.760;  414.432
437.210;  602.817; -194.236;    1.426
437.499; 1886.175; -583.235; -432.576
437.787; 2078.991; -339.236;  -10.574
438.075;  523.347;   56.761;  162.430
438.364;  710.100;  -44.238;  250.429
438.652;  448.755; -286.226; -138.592
438.941;  127.194;    3.770;  269.415
439.229;   21.901; -665.252; -466.545
439.517;   33.733; -160.234;  -85.577
439.806;   -0.604; -501.225; -290.595
440.094;  160.041;  377.766;  650.421
440.382;  197.770; -653.233; -302.580
440.670;  210.349; -361.235; -285.576
440.959;   35.038; -347.223; -170.599
441.247;   58.805; -151.229; -109.587
441.535;  115.882; -266.235;   31.423
441.823;   40.163; -497.234; -305.578
442.111;  199.885;  173.771;  327.412
442.400;  534.818; -628.245; -335.559
442.688; 1366.041; -111.234; -620.579
442.976;  989.102; -786.213; -450.617
443.264;  103.253; -324.224; -364.597
443.552;  106.156; -258.226;   51.408
443.840;  173.830;  602.765;  876.423
444.128;  105.444;  265.767;  269.420
444.416;    8.487; -694.228; -312.588
444.704;   40.568; -465.219;  -92.605
444.992;   88.484;   -0.226;  240.407
445.280;   52.295; -517.230;  -94.585
445.568;   48.055; -694.212; -396.618
445.856;  344.102; -174.221;  357.398
446.143;  770.914;  -54.220;   -7.604
446.431;  631.366;  -25.228;  625.411
446.719;  249.112;  489.783;  675.391
447.007;  198.464;  481.769;  705.416
447.295;  182.585;  597.777;  871.402
447.583;   88.978; -464.229;  -34.587
447.870;  136.374; -434.221; -202.601
448.158;  412.343; -104.230;  129.415
448.446;  335.740; -800.219; -338.604
448.733;  157.904;   13.776;  269.403
449.021;  247.855;   60.788;  341.382
449.309;  184.070; -296.210;  208.379
449.596;  226.784;  128.783;   59.392
449.884;  161.592; -571.222; -325.600
450.172;  172.071; -756.227; -406.590
450.459;  438.385;  645.786;  780.387
450.747; 2407.182; -411.218; -147.608
451.034; 7673.642;  493.772;  889.411
451.322; 6330.538; -413.214; -170.614
451.609;  519.055;  292.777;  508.403
451.897;  593.483; -550.203; -183.634
452.184; 1821.861; -622.223; -400.598
452.472; 1684.891;   97.792;  269.375
452.759;  344.916;  512.781;  864.395
453.047;  114.952; -407.212; -125.617
453.334;   67.074; -732.219; -216.606
453.621;   86.940; -438.214; -161.615
453.909;  125.625;   13.796;  384.368
454.196;   98.621; -299.199; -123.641
454.483;  197.246;  317.798;  540.364
454.771;  139.294; -215.208;  196.374
455.058;   45.373; -316.207;  102.374
455.345;  118.651;   71.807;  344.347
455.632;   84.676; -128.207;  235.373
455.919;   57.843;  -82.196;  182.354
456.207;  -62.525; -774.198; -450.642
456.494;  -26.467; -475.200;  -66.639
456.781;    6.692; -399.202; -198.635
457.068;   63.333; -253.206;  -29.628
457.355;  -18.641; -698.206; -401.629
457.642;    3.889; -552.205; -290.630
457.929;   18.017; -778.194; -417.651
458.216;   65.553; -575.212; -354.617
458.503;  242.347; -173.193;  -19.652
458.790;  232.217; -864.208; -630.625
459.077;  265.247;  -77.202;  110.364
459.364;  804.485; -350.195; -210.649
459.651; 1680.455;  -46.206;  220.372
459.938;  780.583; -864.209; -665.623
460.225;  148.975;  132.799;  276.363
460.512;  -43.910; -836.197; -688.645
460.799;  104.931;  -32.218;  320.392
461.086;   72.988; -370.200; -251.640
461.372;   50.726; -509.198; -279.642
461.659;  108.545; -165.196;  108.354
461.946;   53.270; -445.193;  -54.651
462.233;  232.711;  842.800;  888.361
462.519;  361.207; -814.201; -464.639
462.806; 1018.616; -768.197; -497.645
463.093;  876.416; -445.191;  -66.656
463.380;  -28.317; -920.186; -824.664
463.666;   67.343; -259.197;  -18.646
463.953;  104.255; -406.195; -243.648
464.239;  200.555; -173.195;  -77.648
464.526;  392.491;  413.806;  743.350
464.813;  345.878; -565.190; -304.658
465.099;  356.171;  606.807;  607.348
465.386;  324.150;  903.807;  921.348
465.672;   29.066; -694.197; -522.645
465.959;   29.671; -598.188; -520.662
466.245;   10.400; -468.193; -359.652
466.532;   88.178; -109.195;   63.352
466.818;   70.257; -357.186; -216.664
467.104;   -0.377; -488.182; -415.672
467.391;  -26.770; -628.189; -459.658
467.677;   31.011; -289.186;    9.335
467.964;   17.161; -682.189; -471.660
468.250;   67.239; -331.186; -160.665
468.536;   82.231;   90.811;  180.341
468.822;  -27.074; -821.184; -574.668
469.109;  142.804;  351.827;  471.311
469.395;  179.935;  729.808;  787.346
469.681;  200.184;   46.811;  156.341
469.967; 1251.414; -699.188; -382.660
470.254; 2732.472; -494.188; -306.662
470.540; 1731.268; -601.196; -476.646
470.826;  265.984; -488.181; -397.675
471.112;  301.804;  288.816;  113.331
471.398;   95.734; -253.183;  -58.670
471.684;   42.187; -626.177; -447.680
471.970;    0.613; -918.180; -981.675
472.256;   20.909; -521.192; -441.654
472.542;   17.340; -499.171; -434.691
472.828;   17.794; -743.182; -607.672
473.114;   48.009; -380.166; -283.700
473.400;   18.629; -504.175; -293.684
473.686;   41.740; -452.166; -400.701
473.972;   55.169; -230.174; -131.687
474.258;  -35.871; -925.173; -843.689
474.544;  195.604; -183.178;   -2.679
474.830;  324.056;  -65.175;   45.316
475.116;  488.704; -123.190; -196.658
475.401;  680.865; -558.180; -467.676
475.687;  217.589; -725.180; -718.676
475.973;   20.002; -673.181; -770.673
476.259;  239.058;  736.825;  764.315
476.544;  368.395; -539.176; -437.682
476.830;  852.336; -398.172; -322.690
477.116;  732.644; -430.177; -336.682
477.401;  122.264;  346.820;  358.324
477.687;  -11.246; -289.175; -405.684
477.973;   42.630;   21.819;   28.326
478.258;    2.735; -448.163; -348.706
478.544;   41.119;   21.815;   61.334
478.829;  -53.955; -818.171; -738.692
479.115;  -38.465; -749.172; -651.690
479.401;  -17.061; -444.174; -449.686
479.686;   30.538; -253.180;  -74.676
479.972;  -19.366; -886.178; -776.680
480.257;   29.810; -258.166;  -65.700
480.542;   -8.676; -614.170; -469.693
480.828;  223.727; 1288.824; 1392.317
481.113;  -28.650; -464.176; -426.683
481.399;  -14.091; -236.161; -202.711
481.684;  -56.091; -620.166; -462.700
481.969;   19.223; -158.159;  -73.713
482.255;    0.835; -439.169; -285.695
482.540;   -1.516; -569.178; -441.680
482.825;    8.828; -395.187; -404.663
483.110;  110.163;  -85.169; -105.696
483.396;  198.619; -840.157; -652.718
483.681;  488.769;  543.826;  730.313
483.966;  165.192; -696.160; -700.712
484.251;    8.793; -404.174; -310.687
484.536;    3.520; -356.165; -378.703
484.822;   22.621; -205.173; -218.687
485.107;  -34.417; -599.152; -502.726
485.392;  118.926;  662.836;  541.296
485.677;   72.048;  354.832;  163.302
485.962;  105.792;  160.843;  270.283
486.247;  107.768;  -14.162;   -8.707
486.532;   50.336; -178.166; -325.701
486.817;  163.979;  381.839;  431.291
487.102;  112.916; -453.154; -514.722
487.387;  679.496; -637.156; -652.718
487.672; 1199.406; -154.164;  -38.705
487.957;  744.536; -394.160; -286.711
488.241;  188.900; -290.150; -314.729
488.526;  724.559; -280.152; -148.726
488.811; 1218.361; -881.177; -818.680
489.096;  903.893; -666.154; -702.723
489.381;  496.180;    3.847;  162.275
489.666;  371.184; -428.161; -510.710
489.950;  181.821;  558.846;  627.277
490.235;  -21.330; -480.151; -458.728
490.520;  -46.092; -756.161; -723.710
490.804;  -54.602; -827.156; -736.719
491.089;    3.640; -469.149; -299.732
491.374;   31.505; -132.164;  -75.704
491.658;    6.502; -817.147; -717.735
491.943;  180.488; -657.152; -609.727
492.227;  263.287; -178.155;  -38.721
492.512;   64.992; -294.157; -341.717
492.797;  -51.941; -713.149; -716.731
493.081;  -46.420; -588.147; -598.735
493.366;  -23.240; -751.161; -635.711
493.650;  217.333;  831.859;  917.254
493.935;   44.201; -648.147; -447.734
494.219;  -37.230; -778.142; -687.743
494.503;  -48.571; -585.150; -487.730
494.788;   54.158;   46.842;   74.285
495.072;  104.751;  184.850;  434.271
495.356;  173.269; -463.148; -343.733
495.641;  466.986; -812.146; -736.736
495.925;  439.903; -976.156; -903.719
496.209;   35.165; -599.149; -451.732
496.494;  -33.079; -763.142; -544.744
496.778;   13.866; -364.154; -360.722
497.062;  -47.072; -819.156; -627.719
497.346;  -28.412; -869.160; -640.711
497.631;  139.772;  580.852;  560.266
497.915;   74.897;  -64.145;  175.261
498.199;   68.444; -341.157; -277.718
498.483;   31.457; -562.152; -508.725
498.767;  206.352;  301.850;  300.271
499.051;  182.387; -126.149; -100.732
499.335;   33.811; -693.149; -739.731
499.619;  -31.490; -381.129; -423.767
499.903;   21.685; -272.155;  -65.721
500.187;   19.973; -588.153; -316.724
500.471;   26.413; -796.152; -595.727
500.755;  107.408;   62.839;  -96.710
501.039;   28.336; -270.155; -357.721
501.323;   91.860;  -21.141;  264.254
501.607;   41.936; -447.163; -503.706
501.891;   -3.304; -607.156; -512.718
502.174;  -24.167; -726.144; -585.741
502.458;   84.667;   89.849;  370.273
502.742;   51.334; -180.138; -191.751
503.026;  110.851; -412.147; -254.734
503.310;  180.022; -437.159; -375.713
503.593;  123.928; -464.147; -325.735
503.877;  110.674; -232.133; -156.760
504.161;  171.925;    2.847;  -50.724
504.444;  139.285; -841.158; -710.716
504.728;  471.929; -487.164; -522.704
505.012;  713.474; -257.150;  -76.729
505.295;  540.809; -417.161; -212.711
505.579;  536.753; -256.156; -496.719
505.862;  755.443; -555.145; -333.738
506.146;  729.299; -681.159; -758.714
506.429;  411.050;  568.841;  461.286
506.713;   73.671; -732.151; -667.728
506.996;  326.715;   90.846;  295.278
507.280;  341.374; -633.165; -474.703
507.563;  239.534; -469.155; -261.721
507.847;  101.049; -423.153; -112.724
508.130;   97.110; -665.161; -456.711
508.413;  125.581; -758.167; -577.700
508.697;  238.356; -151.167;   12.300
508.980;  160.325; -422.153; -312.724
509.263;   -9.270; -466.155; -450.720
509.547;   39.399; -124.150;   82.271
509.830;   36.362; -172.160;  140.289
510.113;   87.977;  128.844;  298.281
510.396;   34.906; -530.152; -300.725
510.680;  149.020; -818.145; -812.738
510.963;  633.120;  184.846;  180.277
511.246;  543.256; -493.150; -357.730
511.529;  267.774; -482.145;  -83.739
511.812;  381.721; -250.134;   10.241
512.095;  279.393; -740.151; -396.728
512.378;   69.432; -317.147; -245.736
512.661;   37.066; -703.137; -623.753
512.944;   26.722; -750.142; -637.744
513.227;   64.064; -170.137; -171.752
513.510;   32.208; -479.144; -671.741
513.793;   21.714; -485.140; -435.747
514.076;  139.905;  -43.127;  -39.771
514.359;  111.591; -294.149; -135.732
514.642;   84.700; -442.142; -567.744
514.925;  761.138;  581.860;  561.253
515.208; 1017.617; -498.134; -443.758
515.491;  656.181; -276.133; -182.761
515.773;  386.087; -410.143; -337.742
516.056; 2100.448;  249.864;  409.246
516.339; 2847.402; -754.136; -652.755
516.622; 1914.104; -518.150; -488.730
516.904; 1253.019;  882.857;  975.257
517.187;  580.712; -730.138; -523.752
517.470;  429.368; -568.143; -510.743
517.752;  425.155; -624.136; -470.756
518.035;  348.600; -708.139; -725.749
518.318;  383.052; -799.136; -744.755
518.600; 2435.610; -300.132; -325.762
518.883; 3350.875;  310.858;   88.256
519.165; 1623.280; -585.138; -426.751
519.448;  389.634;  -61.132;  -19.762
519.730;  205.588; -573.126; -415.773
520.013;  311.502;  588.867;  664.240
520.295;  834.022;  -94.134;  -15.759
520.578; 1874.872; -335.131; -305.764
520.860; 2115.034; -254.132;   56.238
521.143; 1109.707; -763.135; -584.756
521.425;  486.651; -251.125; -279.775
521.707;  698.031; -622.127; -380.771
521.990; 1809.956; -199.127;  167.229
522.272; 2070.716; -116.140;   -4.748
522.554;  927.587; -237.143; -157.742
522.836;  368.645;  -24.134;   99.241
523.119;  240.925; -496.148; -189.734
523.401;  171.529; -448.130; -314.766
523.683;   93.092; -865.137; -693.753
523.965;  277.560;  408.862;  260.248
524.247;  289.822;   54.878;  170.220
524.529;  199.247; -451.134; -367.759
524.812;  357.531;   -3.130;  191.234
525.094;  870.435; -773.138; -631.751
525.376; 1366.610; -143.124;   78.223
525.658;  853.724; -441.136; -339.754
525.940;   31.469; -805.131; -671.764
526.222;   33.178; -188.136;  -88.755
526.504;  121.542; -190.131;   32.237
526.786;  193.100; -960.133; -647.760
527.068;  317.341; -124.123;  -67.778
527.349;  124.646; -865.137; -774.754
527.631;  131.709; -137.132;   22.238
527.913;  154.980; -664.127; -450.771
528.195;  172.769; -761.125; -639.774
528.477;  240.317;  -93.134;  -30.758
528.759;  146.206; -648.130; -522.766
529.040;   77.014; -569.123; -293.778
529.322;   57.822; -235.125;  -10.774
529.604;  156.683;  -47.130;   93.233
529.886;  137.613; -546.126; -302.773
530.167;  123.800;  232.870;  192.235
530.449;   37.131;    1.853;   63.265
530.731;   36.296; -572.122; -459.779
531.012;   83.742; -513.120; -216.784
531.294;   77.931; -118.116;  -43.792
531.575;  133.526;  290.875;  538.225
531.857;   64.312; -548.135; -266.757
532.138;  101.233; -113.141;   40.254
532.420;  167.483;  294.865;  403.244
532.701;  235.352; -722.133; -751.760
532.983;  352.030;  232.867;  182.239
533.264;  124.836; -243.126;  175.228
533.546;  -14.148; -491.136; -508.755
533.827;   42.124;  173.867;   -1.759
534.109;   45.087; -352.135;  -80.757
534.390;   93.863; -725.132; -582.762
534.671;  253.283; -270.135;  -82.756
534.953;  140.267; -751.123; -611.779
535.234;   31.791; -426.117; -255.789
535.515;  -73.224; -891.119; -735.785
535.796;  -25.999; -431.128; -193.770
536.078; -111.465;-1050.124; -904.777
536.359;   14.993;  -22.123;    3.221
536.640;   -7.705; -480.125; -197.774
536.921;  162.114;  225.871;  143.232
537.202;  385.581;  -87.138;  -16.751
537.483;  463.972;  251.869;  377.236
537.764;  179.150;   17.870;   98.235
538.045;  -40.784; -543.134; -371.758
538.326;  -25.060; -596.129; -447.768
538.607;   18.032; -686.127; -476.771
538.888;  178.158;   98.879;    5.218
539.169;  169.803; -704.122; -535.781
539.450;  340.137;  236.871;   16.233
539.731;  210.612; -361.121; -182.783
540.012;  143.242;  199.880;  412.216
540.293;   93.829;   82.876;  158.224
540.574;   14.027; -895.113; -717.796
540.855;  443.311;  435.879;  377.218
541.136;  535.700;   47.878;  139.220
541.416;  277.557; -161.130; -220.766
541.697;  212.792; -274.131; -170.763
541.978; 1047.185; -270.135; -315.757
542.259; 1323.032; -211.127; -236.771
542.539;  654.425; -191.116; -186.790
542.820;  186.476;  461.875;  480.225
543.101;  139.996;  -52.145;  -77.738
543.381;   32.906; -638.127; -591.771
543.662;  263.254;  159.873; -254.771
543.942;  583.277; -751.127; -830.770
544.223; 1044.427;  193.878;  161.219
544.504;  699.559; -275.124; -182.777
544.784;  581.588; -592.126; -408.773
545.065; 1688.304;  104.884; -254.791
545.345; 1960.501;  227.881;   14.215
545.626; 1307.326;  -14.113; -108.796
545.906;  871.899;   77.869;   98.235
546.186;  380.317;   92.874;  -95.773
546.467;  200.212;   99.877;  -95.778
546.747;  328.875;  264.884;  327.210
547.027;  370.383;   91.876;  111.223
547.308;  340.676; -376.127; -530.770
547.588;  403.641;  299.871;  371.232
547.868;  188.976;  458.870;  588.235
548.149;  185.686;  609.885;  593.207
548.429;  137.330; -347.127; -299.771
548.709;  196.942; -645.120; -461.784
548.989;  498.060;   84.882;   88.213
549.269; 2120.158;   10.868;  139.239
549.550; 4876.891;  215.877;  117.222
549.830; 4362.119; -758.111; -556.799
550.110;  863.502; -468.110; -320.801
550.390;  838.347; -128.122;  -56.779
550.670; 1153.972; -868.114; -783.795
550.950;  807.385; -509.121; -471.782
551.230;  194.657;  549.879;  460.218
551.510;    9.234; -381.121; -326.782
551.790;   42.010; -173.109; -127.803
552.070;  267.387;  940.877; 1181.223
552.350;  416.480; -492.119; -377.786
552.630;  591.154;   -2.121;   77.219
552.909;  357.530;  181.884;   73.209
553.189;  240.039;  -49.132;   33.237
553.469;  209.454; -703.119; -514.786
553.749;  197.908; -469.127; -357.772
554.029;  163.621;   33.883;  -24.790
554.308;  146.941; -154.115;  -37.794
554.588;   77.200; -196.128; -204.770
554.868;   73.961; -366.121;  -47.782
555.147;  156.938; -114.115;  -46.793
555.427;  601.157; -260.116; -250.792
555.707; 3928.511; -284.115; -200.793
555.986; 4742.623; -719.111; -538.800
556.266; 2490.124;   23.884;   72.210
556.546;  131.634; -888.121; -675.782
556.825;  259.770; -657.114; -556.794
557.105; 1788.098; -125.128;   17.230
557.384; 2116.628;  122.884;  187.209
557.664;  818.356; -717.116; -508.792
557.943;  131.110; -557.121; -411.782
558.222;  160.913; -345.118; -344.788
558.502;  296.414; -116.115;  -76.793
558.781;  506.585;  194.885;  499.208
559.061;  412.338; -232.118; -227.788
559.340;  280.343;  302.883;  353.211
559.619;  699.099;   93.884;  148.210
559.899; 1048.895; -239.117; -266.789
560.178;  967.489; -778.115; -593.793
560.457; 3127.122; -623.117; -562.790
560.736; 4420.524; -472.111; -482.800
561.015; 2918.346; -500.128; -502.769
561.295;  395.555;  180.893;  215.193
561.574;  354.586;  119.885;  116.207
561.853;  507.239;  274.891;  303.197
562.132;  508.041;  -45.114;  182.206
562.411;  443.605;  396.879;  553.219
562.690;  144.259; -592.115; -458.792
562.969;  126.434;  472.888;  630.203
563.248;  496.202; 2966.878; 2487.219
563.527;  272.573; -290.111; -408.800
563.806;  377.330; -650.127; -521.771
564.085;  432.370; -297.105; -206.810
564.364;  245.723; -594.117; -405.790
564.643;  499.330; -276.121; -223.781
564.922; 1905.058;  221.890;  397.198
565.201; 1897.012; -640.109; -700.803
565.479;  822.983; -297.115; -219.792
565.758;  335.948; -810.128; -712.770
566.037;  485.288; -155.109; -100.803
566.316;  243.454; -286.116;  -28.791
566.595;   44.561;  -17.115;  -12.793
566.873;   90.650; -166.111;  -79.801
567.152;  -68.367; -490.113; -590.797
567.431;    9.275; -113.116;    6.210
567.709;   20.405; -344.107; -212.807
567.988;  255.270; -810.114; -769.794
568.266;  536.486; -160.115;  -68.793
568.545;  404.742; -644.100; -514.819
568.824;  590.957;  160.885;  356.208
569.102;  559.769; -351.114; -235.794
569.381;  225.732; -492.116; -407.792
569.659;  -38.821; -553.113; -553.796
569.938;   43.251; -743.122; -465.780
570.216;  111.315; -225.109; -225.804
570.494;  -14.252; -632.114; -572.795
570.773;   43.734;  202.879;  114.218
571.051;   17.890; -373.123; -357.778
571.330;   71.327; -221.113; -174.796
571.608;   43.335; -181.098; -173.823
571.886;  -58.982; -671.111; -581.799
572.164;  -55.039; -739.121; -621.782
572.443;  -41.151; -562.105; -512.811
572.721;  -37.578; -399.117; -289.790
572.999;  -17.960; -280.117; -168.788
573.277;   94.867;  379.894;  620.191
573.555;  295.694;   94.894;   37.190
573.834; 1364.890;  -86.117; -114.788
574.112; 1584.207;  880.893;  811.193
574.390;  499.124; -143.111;  -96.801
574.668;   13.134;  -91.112;  -61.797
574.946;  -12.681; -165.106; -187.810
575.224;   16.061;   71.891;  -16.803
575.502;   -7.199; -200.116; -204.791
575.780;  -81.190; -767.112; -829.798
576.058;  240.373; 1589.889; 1004.200
576.336;  -18.446; -210.110; -129.801
576.614;  -47.564; -511.112; -340.798
576.891;   48.065; -711.115; -823.794
577.169;  483.098; -158.108; -285.805
577.447;  586.532;  169.893;  202.193
577.725;  279.715;  629.888;  854.201
578.003;   20.688;  -71.112; -371.798
578.280;  100.333; -208.104; -242.812
578.558;   85.264; -450.115; -422.793
578.836;  142.497; -210.114; -145.795
579.114;   64.809; -630.112; -670.797
579.391;   70.142;   -6.117;  -18.789
579.669;  -73.384; -595.114; -704.794
579.947;  165.154; -326.107; -127.806
580.224;  334.253; -692.107; -524.806
580.502;  314.033;  127.893;   76.193
580.779;   20.473;  -42.117;   75.210
581.057;  -67.809; -584.109; -470.804
581.334; -104.377; -726.102; -695.815
581.612;   34.020;   54.895;  511.190
581.889;  -21.589;  -83.101; -129.818
582.167;  -32.350; -298.099; -190.821
582.444;  -90.895; -845.102; -814.817
582.721;  103.931;  657.899;  715.183
582.999;   66.547; -326.100; -167.821
583.276;  523.394; -812.123; -713.779
583.553;  721.001; -364.102; -294.816
583.831;  238.954; -607.104; -631.812
584.108;   63.721;  349.892;  174.195
584.385;   20.372; -122.102;  -98.815
584.662;  -64.799; -651.111; -828.801
584.940;   44.700;  204.889;  204.199
585.217;  -14.646;  -73.113; -303.796
585.494;   29.384;   71.890;  118.198
585.771;  215.466; -250.109; -354.804
586.048;  507.004; -196.113;  -76.796
586.325;  314.003; -721.110; -773.801
586.602;   85.283;  230.896;  213.188
586.879;  -13.831; -499.100; -580.820
587.156;   72.371; -156.105; -331.810
587.433;  -36.047; -701.102; -667.817
587.710;   73.911;  152.888;  234.202
587.987;  313.426; -264.105; -236.811
588.264;  800.813;  315.888;  387.202
588.541; 1337.335;  -61.104;   26.187
588.818; 2731.519;   72.892;  171.196
589.095; 2292.381; -163.104; -174.812
589.371;  381.914; -459.109; -414.804
589.648;   21.282; -581.107; -437.807
589.925;   29.748; -517.114; -621.795
590.202;   14.311; -741.112; -607.798
590.478;  101.253; -166.105;  -73.811
590.755;  268.400; -241.108; -132.806
591.032; 2501.880; -741.110; -699.802
591.308; 3440.500; -732.094; -790.831
591.585; 1755.555; -573.110; -560.802
591.862;  144.405;-1056.102; -950.817
592.138;   73.747; -475.108; -474.805
592.415;  163.209; -486.104; -495.813
592.691; 1461.907;  460.896;  518.188
592.968; 1868.887; -208.098; -123.824
593.244;  895.850; -695.116; -595.790
593.521;   92.455; -105.102;  -42.817
593.797;  -10.777; -810.122; -720.780
594.074;  338.700; -611.096; -588.826
594.350;  664.261;  828.905;  729.172
594.626;  304.776; -303.111; -283.801
594.903;  119.481; -643.101; -645.817
595.179;  191.238;  243.896;  418.187
595.455;   23.984; -136.107; -150.807
595.731;    8.339;  -19.103;  -38.814
596.008;  -38.330; -464.111; -434.800
596.284;   54.546; -187.100; -242.820
596.560;   56.882; -501.093; -493.833
596.836;  202.423; -173.105;  -70.810
597.112;  357.848; -582.108; -437.805
597.388;  292.697;  -49.097;  -48.826
597.665;  115.332;  437.887;  530.203
597.941;  -55.139; -572.089; -658.839
598.217;   19.908; -323.110; -293.802
598.493;  258.643;   61.891; -204.804
598.769;  514.141; -175.100;  -50.819
599.045;  309.301; -490.108; -562.806
599.321;   64.020; -193.100; -261.820
599.597;  144.117; -355.109; -476.804
599.872;  490.285;  409.896;  429.187
600.148;  381.224;  -61.097; -172.826
600.424;  294.656;   91.893;  202.193
600.700;  253.408; -170.107; -280.807
600.976;  139.918; -442.097; -464.825
601.252;  262.789; -226.109; -272.803
601.527;  220.611; -833.104; -840.813
601.803;  142.804; -453.105; -404.812
602.079;  187.366; -124.100; -118.819
602.354;  571.091; -620.092; -531.835
602.630;  829.204; -140.113; -482.796
602.906; 2305.261; -910.101; -863.818
603.181; 6692.730; -627.119; -534.786
603.457; 5663.697;   98.903; -278.826
603.733;  828.013; -605.120; -626.783
604.008;  951.420; -245.106; -164.810
604.284; 3025.232; -636.101; -580.817
604.559; 2651.490;   -3.112;  -42.799
604.835;  492.748; -163.105; -225.810
605.110;  426.101; -732.099; -892.821
605.385;  691.634;  224.907;  267.167
605.661;  658.013; -625.095; -729.829
605.936; 1185.401; -664.108; -737.806
606.211;  987.521;  -17.103; -170.815
606.487;  217.718; -329.114; -376.794
606.762;   18.005; -791.119; -745.786
607.037;  -24.827; -501.105; -433.810
607.313;  -40.393; -589.096; -574.828
607.588;  -17.155; -375.106; -137.810
607.863;   42.610;  -28.101; -143.818
608.138;  175.782;  513.890;  516.198
608.413;   36.054; -576.099; -592.822
608.688;   39.923; -203.108; -267.805
608.964;  204.764; -509.106; -218.809
609.239;  252.445; -107.105; -212.810
609.514;  254.128;  281.895;  240.188
609.789;  649.808; -187.104; -716.812
610.064;  892.080; -435.096; -609.827
610.339;  868.164; -855.109; -799.804
610.614; 1197.521; -131.100; -315.820
610.889;  657.854;  215.895;  107.188
611.163;   29.929; -407.104; -591.812
611.438;   84.219;   81.886; -167.794
611.713;    6.632; -467.101; -499.817
611.988;   62.984; -144.101; -328.818
612.263;  -20.627; -771.102; -717.815
612.538;  232.528;  385.887;  251.204
612.812;  197.972; -832.100; -911.820
613.087;  153.110; -358.098; -338.823
613.362;  -46.467; -497.107; -557.807
613.637;   33.017;  261.897;  138.186
613.911;    0.692; -256.092; -345.835
614.186;  108.257; -249.107; -292.807
614.460;  699.036; -842.081; -758.854
614.735;  783.509;  -55.087;  -17.843
615.010;  173.274;   43.912;  -82.841
615.284;  258.097;  360.892;  246.195
615.559;  369.316; -792.092; -955.835
615.833;  291.353;  -76.099;  -87.822
616.108;    9.753; -225.090; -390.837
616.382;  143.911;  274.913;  402.156
616.656;  163.478; -241.090; -232.837
616.931;  506.828; -785.099; -700.822
617.205; 1089.012; -973.104; -979.813
617.480;  976.924;  -91.125;    6.225
617.754;  162.946; -396.125; -128.774
618.028;   11.742; -369.129; -382.768
618.302;   74.096;   73.892;  -25.805
618.577;  -51.307; -371.103; -518.815
618.851;  -54.439; -399.109; -600.803
619.125;  -48.428; -335.134; -378.759
619.399;  -26.013; -244.104; -374.813
619.673;  -35.342; -330.115; -515.792
619.947;  -46.478; -333.114; -448.795
620.222;  -19.348; -198.110; -204.801
620.496;   -3.589;  -47.121;  -96.782
620.770;   23.402; -187.122;  -93.781
621.044;  203.171;  323.895;  346.190
621.318;  740.589; -653.120; -614.783
621.592;  666.586; -430.121; -409.783
621.866;  370.191; -476.112; -572.799
622.140;   32.476; -207.116; -356.791
622.413;   63.370;  138.889;  112.200
622.687;  -49.843; -746.101; -492.817
622.961;   30.346; -130.108; -143.805
623.235;  -53.729; -633.111; -661.800
623.509; -100.622; -816.105; -848.811
623.783;   14.654;  -12.107;   48.193
624.056;  -20.260; -254.120; -280.783
624.330;   55.584;   63.888;   -3.797
624.604;   46.573; -271.116; -355.790
624.877;   83.331;  180.890;   26.198
625.151;   41.042; -249.114; -238.794
625.425;  -42.111; -150.103; -283.814
625.698;  -70.301; -367.119; -374.785
625.972;  -89.591; -799.110; -765.802
626.245;   80.400;  685.884;  484.210
626.519;  -30.806; -426.120; -340.784
626.792;  -33.892; -192.107; -380.807
627.066;  -88.505; -485.122; -662.779
627.339;  -95.795; -736.110; -663.802
627.613;   46.167;  351.880;  148.216
627.886;   45.560;  187.891; -612.803
628.160;  -21.312;  312.880; -161.783
628.433;  -85.348; -695.125; -703.775
628.706;  -72.531; -517.120; -615.784
628.979;   33.658;  296.876;  117.223
629.253;  -82.046; -785.119; -833.786
629.526;  381.236; -334.126; -253.772
629.799;  356.265; -641.123; -479.778
630.072;  161.818; -497.128; -516.769
630.346;  -51.400;-1115.116;-1080.790
630.619;  447.059; -467.107; -545.808
630.892;  623.821;  709.889;  593.200
631.165;  333.662;  790.896;  679.187
631.438;  -66.087;-1092.112;-1055.798
631.711;   55.318;  453.877;  257.221
631.984;  -63.555; -523.117; -624.789
632.257;  -59.808; -636.117; -681.789
632.530;  -46.551; -412.119; -433.785
632.803;   10.415; -109.115;    7.207
633.076;  -63.738; -360.123; -422.777
633.349;   12.547;  173.872;  121.231
633.622;  -28.127; -187.119; -240.785
633.895; -114.310; -903.120; -823.783
634.167;  -67.737; -496.126; -525.773
634.440;   -6.394;  -19.116; -137.792
634.713;    6.053;  -22.119; -120.786
634.986;   72.512;  593.871;  453.233
635.258;  -81.762; -507.115; -597.793
635.531;   97.838;  742.882; -343.788
635.804;  -21.981; -303.117; -318.789
636.077;  -92.323; -830.116; -852.791
636.349;   -0.488; -586.115; -474.793
636.622;  399.835; 1695.874; 1392.228
636.894;  233.144; -474.120; -909.784
637.167;  151.729; -836.127; -789.771
637.439;   30.576; -278.128; -213.770
637.712;  -35.513; -312.126; -293.772
637.984;  -84.522; -635.116; -707.791
638.257;  369.487;  515.877;  488.222
638.529;  581.003; -881.125; -924.776
638.802;  244.318; -508.128; -449.769
639.074; -104.298; -927.122; -952.781
639.346; -121.261; -942.135; -930.757
639.619;   -2.851;  -79.142; -319.744
639.891;  -11.580;  -83.122; -168.779
640.163;  -77.828; -689.122; -756.780
640.435;   31.024;  273.878;  103.220
640.708;    1.226;  -72.122; -132.780
640.980;  -34.447; -366.122; -362.781
641.252;  188.955;  -25.121;  -71.781
641.524; 1770.206;  580.879;  573.219
641.796; 1817.333;-1094.121; -907.782
642.068;  328.835; -191.121; -300.782
642.340;  -48.313; -486.121; -566.783
642.613;   31.539;  294.880;  323.217
642.885; -107.209; -787.120; -878.783
643.157;  -41.833; -810.120; -658.784
643.428;   56.194;  170.880;  218.216
643.700;  -73.404; -498.120; -425.784
643.972;  -34.702;  -16.119; -133.785
644.244;  -97.725; -474.119; -559.785
644.516;  -59.898; -250.119; -114.786
644.788;   58.853;  662.881;  548.214
645.060;  -16.545;  -12.119; -124.786
645.332;  -99.668; -525.118; -535.787
645.603;   38.309;  479.882;  342.213
645.875;  -63.864; -334.118; -369.787
646.147;  169.788; 1487.882; 1242.212
646.418;  -71.136; -931.117; -918.788
646.690;  140.166; -714.117; -715.789
646.962;   43.043; -413.117; -451.789
647.233;   -9.555;   15.883;   11.211
647.505; -111.603; -595.117; -475.790
647.776;   29.849;  328.884;  229.210
648.048;  -14.600; -248.116; -418.790
648.320;  -78.698; -752.116; -679.791
648.591; -151.671;-1055.116; -958.791
648.862;  -91.919; -505.116; -577.792
649.134;   16.708;  115.885;  198.208
649.405;  -44.965; -661.115; -618.792
649.677;  -52.814; -475.115; -598.793
649.948;    9.613; -181.115; -296.793
650.219;   -5.585;  -37.115; -147.793
650.491;  -82.208; -431.114; -520.794
650.762; -117.706; -705.114; -731.794
651.033;  -82.179; -437.114; -424.795
651.304;  -88.078; -743.114; -728.795
651.576;  -70.301; -680.114; -645.795
651.847;  -32.124; -250.113; -140.796
652.118;  -25.697;  -32.113; -189.796
652.389;  -90.245; -639.113; -722.796
652.660;  -13.818; -147.113;  -89.797
652.931; -131.692; -897.112; -871.797
653.202;  -83.165; -382.112; -541.798
653.473;  -53.913; -633.112; -533.798
653.744;  163.364; -595.112; -590.798
654.015;  134.866; -356.112; -303.799
654.286;  -68.132; -642.111; -663.799
654.557;  -56.506; -586.111; -521.799
654.828; -139.804;-1114.111;-1088.800
655.099;  -71.827; -404.111; -291.800
655.370;  -88.675; -427.111; -543.801
655.641; -109.023; -656.110; -714.801
655.911;  -98.871; -618.110; -638.801
656.182;   41.855;  437.890;  387.198
656.453;   83.982;  830.890;  746.198
656.724;  -75.941; -466.110; -426.802
656.994;  -75.814; -553.109; -568.803
657.265; -109.887; -862.109; -873.803
657.536;  -70.910; -500.109; -377.804
657.806; -105.709; -561.109; -593.804
658.077; -129.032; -866.109; -950.804
658.347;  -75.605; -523.108; -598.805
658.618; -118.553; -646.108; -694.805
658.888;  -14.651;  -41.108;  112.195
659.159;  -76.474; -432.108; -548.806
659.429;   -8.948; -292.108; -349.806
659.700;    6.954; -435.107; -390.807
659.970;   -7.269; -370.107; -359.807
660.241;   12.533; -754.107; -921.807
660.511;  499.385; -147.107; -174.808
660.781;   96.437; -793.106; -748.808
661.052;  -48.737; -222.106; -381.808
661.322;  -21.360;   21.894;   -9.809
661.592;   25.192;  257.894;  148.191
661.862;  -58.281; -369.106; -382.810
662.133;  -90.254; -551.105; -502.810
662.403; -117.178; -770.105; -676.810
662.673;  -58.901; -256.105; -213.811
662.943;  -85.699; -612.105; -551.811
663.213;   -5.347;  -85.105;  -81.811
663.483;  -85.245; -593.104; -568.812
663.753;  -45.268; -194.104; -152.812
664.023;  -12.567;   68.896;  -32.813
664.293;  -47.165; -319.104; -126.813
664.563; -109.363; -694.104; -648.813
664.833; -101.686; -743.103; -608.814
665.103; -135.934; -730.103; -793.814
665.373; -123.757; -766.103; -806.814
665.643;  -75.106; -863.103; -918.815
665.913;   41.296; -534.103; -714.815
666.182;  144.673; -685.102; -719.816
666.452;  261.675;  -22.102;  -89.816
666.722;  -15.798; -724.102; -784.816
666.992; -132.371; -948.102; -921.817
667.261;  -93.445; -824.102; -808.817
667.531;  181.657;  134.899;   45.183
667.801;  549.809; -440.101; -412.818
668.070;  236.011;  714.899;  697.182
668.340; -114.562; -883.101; -840.819
668.609;   90.440;  588.900;  301.181
668.879;  -85.234; -490.100; -558.819
669.149;  -65.657; -539.100; -516.820
669.418;  -98.380; -698.100; -726.820
669.688;  -22.703; -482.100; -666.820
669.957;   58.949; -423.099; -546.821
670.226;  -17.649; -268.099; -331.821
670.496;  -92.673; -431.099; -635.822
670.765;  -69.846; -418.099; -501.822
671.034; -138.894; -872.099; -828.822
671.304;  -17.917;   55.902; -111.823
671.573; -148.590;-1085.098; -957.823
671.842;   78.362; -380.098; -294.823
672.112;   32.063; -692.098; -586.824
672.381;    7.565; -239.098; -214.824
672.650; -135.508;-1005.097;-1021.825
672.919;  -74.306; -631.097; -507.825
673.188;  -77.629; -681.097; -878.825
673.457; -158.552;-1101.097;-1143.826
673.726;  -71.626; -579.096; -646.826
673.995;  -40.199; -533.096; -479.826
674.265;   -7.472; -263.096; -333.827
674.534;   15.680; -183.096; -235.827
674.802;   -1.743; -618.096; -703.828
675.071;  958.659; -886.095; -801.828
675.340; 3916.035; -464.095; -339.828
675.609; 1305.337;  103.905;   82.171
675.878;   77.114; -949.095; -893.829
676.147;   42.891;  -26.095;   -8.829
676.416;   82.743; -210.094; -294.830
676.685;  719.570; 1000.906; -622.830
676.953;  103.221; -603.094; -452.831
677.222;  -30.677; -193.094; -273.831
677.491;  -19.575;  -24.094; -127.831
677.759;   -3.823;   11.907;  172.168
678.028;  -18.346; -279.093; -222.832
678.297;   -3.319;   71.907;  197.168
678.565; -145.193; -898.093; -944.833
678.834;  -46.541; -311.093; -268.833
679.102;  -66.464; -411.092; -391.834
679.371; -132.412; -898.092; -727.834
679.639; -122.435; -797.092; -786.834
679.908; -114.933; -794.092; -724.835
680.176; -148.682; -895.091; -941.835
680.445;  -62.555; -346.091; -352.835
680.713;  -27.003;  -58.091;  -23.836
680.982;  -92.176; -523.091; -525.836
681.250;  -96.949; -578.091; -507.837
681.518;  -97.122; -534.090; -751.837
681.787;  -27.346; -204.090; -167.837
682.055;  -63.344; -490.090; -422.838
682.323; -150.742; -993.090; -992.838
682.591;   17.060; -216.090; -538.838
682.859;   83.987;    9.911;  -35.839
683.128;   22.339;  232.911;  497.161
683.396; -159.185;-1102.089;-1122.840
683.664;  -38.283; -241.089;   21.160
683.932;    2.444;  144.911;  -76.840
684.200;  -79.729; -576.088; -320.841
684.468;  -29.652;  -73.088; -124.841
684.736;  -28.775; -214.088; -175.841
685.004; -113.374;-1024.088; -982.842
685.272;  -37.597; -880.088; -774.842
685.540;  -62.070; -499.087; -557.843
685.808;  -87.043; -651.087; -682.843
686.076; -100.691; -894.087; -969.843
686.343;  -46.739; -601.087; -815.844
686.611;   33.912; -195.087; -224.844
686.879;  445.889; -530.086; -553.844
687.147; 3296.791; -483.086; -480.845
687.414;  947.068;  -12.086; -169.845
687.682;   14.620; -658.086; -757.846
687.950;  309.347;  259.915;  263.154
688.217;   10.023; -792.085; -760.846
688.485;    3.100; -632.085; -636.847
688.753;  523.527;  -11.085; -102.847
689.020;  160.079; -820.085; -851.847
689.288;  -93.444; -853.084; -787.848
689.555;  -27.217; -195.084; -148.848
689.823;  -46.191; -241.084; -345.849
690.090;  -87.889; -546.084; -651.849
690.358; -133.012; -877.084; -897.849
690.625;   14.590;  120.917;   45.150
690.892;  -79.383; -403.083; -369.850
691.160;  -14.631;   72.917;  -35.850
691.427;   -0.880;  141.917;  130.149
691.694; -136.803; -855.083; -929.851
691.962; -137.026;-1177.082;-1060.852
692.229;   11.751;  127.918;   56.148
692.496;   81.578;  130.918;  -49.852
692.763;   15.855; -164.082; -201.853
693.031;  -63.394; -739.082; -716.853
693.298;  -43.817; -509.081; -368.853
693.565;  290.010; -155.081; -163.854
693.832; 1279.987;   -5.081;   -9.854
694.099;  160.439; -643.081; -642.855
694.366;  -45.984; -882.081; -896.855
694.633;  -52.033; -920.080; -633.855
694.900;  721.594; 4367.920; -114.856
695.167;  428.096; -214.080; -380.856
695.434;   99.998; -646.080; -623.856
695.701;  183.725;  121.921;  -61.857
695.968;  465.052; -365.079; -361.857
696.234;  961.853; -415.079; -646.858
696.501;10193.980; -776.079; -614.858
696.768; 5336.007; -554.079; -617.858
697.035;  330.034; -632.078; -667.859
697.302;   31.636; -448.078; -552.859
697.568;   13.438; -458.078; -497.859
697.835;  -37.886; -683.078; -624.860
698.102;  -40.409; -498.078; -407.860
698.368;   73.593;  384.923;  396.139
698.635;  -21.905;  -47.077; -424.861
698.901;   -8.178; -240.077; -348.861
699.168;   65.424; -534.077; -456.862
699.435;   65.725;  -72.077;  -13.862
699.701; -110.098; -868.076; -764.862
699.968;   10.129;  144.924; -441.863
700.234;  -89.969; -783.076; -822.863
700.500;  -47.842; -448.076; -539.864
700.767;   -9.315;   -1.075;   26.136
701.033; -125.989;-1015.075; -963.864
701.299;  -48.437; -450.075; -483.865
701.566;  128.865;  950.925;  763.135
701.832;   16.642;  -31.075;  -76.865
702.098;  -76.006;-1054.074;-1034.866
702.365;  -79.554;-1098.074;-1030.866
702.631;  -20.053;-1038.074;-1063.867
702.897; 1318.724; -765.074; -676.867
703.163; 2247.201;  348.926;  254.133
703.429;  164.428; -256.073; -273.868
703.695;  -28.720; -796.073; -792.868
703.961;   11.557; -214.073; -210.868
704.227;  -54.992; -630.073; -725.869
704.493;  125.335;  613.927;  510.131
704.759;  -31.813; -565.072; -540.870
705.025;   33.739; -203.072; -194.870
705.291;  -14.159; -666.072; -562.870
705.557;  191.043;  719.928;   34.129
705.823;   38.969; -742.072; -694.871
706.089;  140.221; -307.071; -326.871
706.355;  358.023; -315.071; -244.872
706.620; 5403.575; -776.071; -729.872
706.886; 7781.752; -309.071; -362.873
707.152;  737.979; -818.070; -973.873
707.418;  -10.945;-1153.070;-1186.873
707.683;    7.257; -550.070; -530.874
707.949;  -33.991; -547.070; -578.874
708.215;   -2.589; -129.070; -207.874
708.480;  -26.312; -520.069; -420.875
708.746;  102.815;   68.931;   28.125
709.011;  -65.259; -578.069; -612.876
709.277;  -70.382; -538.069; -543.876
709.542;  -55.755; -428.069; -387.876
709.808;   -0.053;  -59.068;   89.123
710.073;  -80.526; -577.068; -695.877
710.339;  -22.849; -242.068; -228.877
710.604;   69.227; -780.068; -845.878
710.869;  318.029; -277.068; -366.878
711.135;  -76.594; -715.067; -628.879
711.400;  -73.742; -507.067; -608.879
711.665;  -58.515; -404.067; -479.879
711.931; -102.363; -661.067; -677.880
712.196; -102.462; -876.067; -954.880
712.461;  110.015; -402.066; -490.880
712.726;  129.592; -727.066; -771.881
712.991;  -81.781; -647.066; -664.881
713.256;  -35.504; -350.066; -332.882
713.521;  -58.377; -417.065; -381.882
713.787;  -62.401; -454.065; -472.882
714.052;  -40.774; -214.065; -400.883
714.317;  -83.497;-1045.065; -981.883
714.581;  994.730; -374.065; -268.883
714.846; 1421.757; -822.064; -888.884
715.111;  121.409;  261.936;  257.116
715.376;  -20.140;  -86.064; -223.885
715.641;  -18.363; -365.064; -367.885
715.906;  307.089;   15.936; -551.885
716.171;  134.641;  221.937;  209.114
716.436;   31.718;  -78.063; -104.886
716.700;  -96.555; -818.063; -692.886
716.965; -121.354; -794.063; -807.887
717.230;  -65.477; -339.063; -392.887
717.494;  -16.900;  -40.062; -134.888
717.759; -103.073; -784.062; -640.888
718.024;   -2.821;  269.938;  250.112
718.288;   84.081;  685.938;  395.111
718.553; -122.643; -803.062; -977.889
718.817; -131.716; -883.061; -899.889
719.082;  -19.414; -115.061; -125.890
719.346; -148.762;-1000.061; -947.890
719.611;  -38.610; -300.061; -255.891
719.875;  -99.608; -568.060; -537.891
720.140;  -64.407; -453.060; -603.891
720.404;   52.695; -136.060; -249.892
720.668;  856.797; -475.060; -411.892
720.933;  318.474;  146.940;  137.108
721.197;  -82.699; -667.059; -600.893
721.461; -143.447; -851.059; -826.893
721.725;   -4.096;  -21.059; -250.894
721.990;  -54.444; -284.059; -204.894
722.254;  -36.742;  -26.059; -108.894
722.518;  -66.165; -286.058; -442.895
722.782; -102.263; -743.058; -594.895
723.046;  114.939;  614.942;  570.105
723.310;   29.140;  374.942;  210.104
723.574;  -93.783; -654.058; -614.896
723.838;  -89.456; -576.057; -642.897
724.102;  -47.179; -226.057; -239.897
724.366; -127.927;-1032.057; -978.897
724.630;  -88.550; -749.057; -571.898
724.894;  -77.749; -722.057; -514.898
725.158;   -1.372;   38.944; -295.898
725.422;  -43.295; -394.056; -327.899
725.685;  -51.993; -441.056; -349.899
725.949;  -78.141; -566.056; -519.900
726.213;  -64.689; -732.056; -811.900
726.477;  167.012;-1020.055; -933.900
726.740;  161.089; -274.055; -104.901
727.004;  320.366; -384.055; -510.901
727.268; 3276.918; -442.055; -400.901
727.531;  932.495; -961.055; -775.902
727.795;  -43.228; -713.054; -673.902
728.059;  -48.477; -552.054; -557.903
728.322;  -74.300; -841.054; -669.903
728.586;   43.102; -692.054; -701.903
728.849;  -81.896; -695.053; -756.904
729.112; -112.419; -812.053; -912.904
729.376; -122.942; -959.053; -905.904
729.639;  -77.716; -536.053; -536.905
729.903; -108.089; -733.053; -699.905
730.166;  -42.762; -437.052; -399.906
730.429;  -17.910; -317.052; -468.906
730.693;  -58.533; -355.052; -894.906
730.956;  215.894;  810.948;  651.093
731.219;  701.995; -310.052; -103.907
731.482;  117.197;-1003.051; -894.907
731.745;   97.574; -794.051; -935.908
732.009;   27.851;  -30.051;   50.092
732.272;  -89.397; -904.051; -771.909
732.535;  -33.020; -300.051; -310.909
732.798; -154.794;-1083.050;-1166.909
733.061;  -49.342; -430.050; -456.910
733.324;   10.210;   31.950; -180.910
733.587;   65.012;  290.950;  365.090
733.850;  -59.636; -973.049;-1050.911
734.113;   16.666;   33.951;   32.089
734.376;   16.342; -328.049; -447.912
734.639;  222.994; 1188.951; 1011.088
734.901;   58.546; -180.049; -402.912
735.164;  477.723; -883.048; -837.913
735.427; 1312.950; -166.048; -355.913
735.690;  129.802; -205.048; -234.913
735.952;  -46.497; -923.048; -925.914
736.215;  -17.920;-1113.048;-1009.914
736.478;   34.632; -771.047; -774.915
736.740;  211.034;   33.953;  129.085
737.003;  649.236; -658.047; -672.915
737.266; 4079.313;  -94.047;   46.084
737.528;  439.864; -682.047; -660.916
737.791;  330.091; -316.046; -327.916
738.053;  787.943;  465.954;  649.083
738.316;10573.495; -162.046; -136.917
738.578; 7766.197; -770.046; -736.918
738.841;  454.899; -382.046; -446.918
739.103;  179.875; -875.045; -777.918
739.365;  501.402;   79.955;  -69.919
739.628;   -3.296; -884.045; -805.919
739.890;  -35.294; -758.045; -710.919
740.152;  -37.667; -692.044; -754.920
740.414;   -8.365; -408.044; -359.920
740.677;  -57.764; -785.044; -634.921
740.939;  -25.462; -587.044; -487.921
741.201;  272.315; -432.044; -572.921
741.463;   46.667; -689.043; -745.922
741.725;   12.794;  -21.043; -199.922
741.987;   47.596;  220.957;  116.078
742.249;    8.047; -751.043; -859.923
742.511;  229.299; -703.043; -794.923
742.773;   19.626; -546.042; -546.924
743.035;  125.453;  796.958;  533.076
743.297;  -32.645; -963.042;-1013.924
743.559;  721.532; -278.042; -262.925
743.821;   69.358; -735.042; -744.925
744.083;   16.360;  -44.041; -149.925
744.345;  -88.713; -869.041; -892.926
744.607;   51.239;   75.959;  122.074
744.868;  -49.984; -490.041; -554.927
745.130;  -96.957; -994.041;-1008.927
745.392;   34.794;   -1.040;  -44.927
745.653;   -9.629; -411.040; -378.928
745.915;  156.823;  896.960;  631.072
746.177;   61.525;   35.960;  -43.928
746.438;    5.577; -428.040; -543.929
746.700;  -33.646; -947.039; -988.929
746.961;   10.780; -659.039; -740.930
747.223;  139.532; -190.039;  -74.930
747.484;   94.259; -391.039; -471.930
747.746;  149.186;  -23.038; -106.931
748.007;  106.788; -647.038; -689.931
748.269;  296.915; -468.038; -440.931
748.530;  489.791; -852.038; -638.932
748.791;  250.768; -354.038; -420.932
749.053;  441.920;  286.963;  163.067
749.314;  447.622; -236.037; -169.933
749.575;  509.574; -945.037; -905.933
749.836;  834.326; -217.037;   86.066
750.098; 2353.277;  -60.037;  -21.934
750.359;36185.054;  414.964;  555.066
750.620; 9651.581; -121.036; -220.935
750.881; 1035.583; -585.036; -513.935
751.142; 1345.385; -950.036; -938.936
751.403;16401.787; -789.036; -705.936
751.664; 7603.513;-1034.035; -999.936
751.925;  486.615; -175.035; -262.937
752.186;  283.992; -298.035; -278.937
752.447;  132.019; -590.035; -445.937
752.708;   45.746; -532.035; -648.938
752.969;   13.798; -566.034; -576.938
753.230;   -4.451; -777.034; -672.939
753.491;    3.801; -650.034; -631.939
753.751;   66.903;  109.966;   19.061
754.012;  102.655;  258.967;  181.060
754.273;   55.457; -174.033;  -71.940
754.534;    1.034; -487.033; -580.940
754.794;  -92.640; -926.033; -911.941
755.055;  147.787; 1051.967;  881.059
755.316;  -55.636; -700.032; -566.942
755.576;   -9.434; -606.032; -576.942
755.837;  -38.582; -527.032; -695.942
756.097;  -44.655; -530.032; -564.943
756.358;  -65.429; -725.032; -770.943
756.618;  -46.377; -705.031; -641.943
756.879;   -1.150; -254.031; -349.944
757.139;  -97.873;-1098.031;-1116.944
757.400;  -37.396; -538.031; -553.945
757.660;   -9.844; -365.031; -401.945
757.920;   21.682; -266.030; -228.945
758.181;   -5.266; -468.030; -351.946
758.441;  -87.289; -870.030; -809.946
758.701;  -16.112; -308.030; -215.946
758.961;  -12.635; -220.030; -278.947
759.222;  -46.158; -574.029; -502.947
759.482;  -69.757; -683.029; -723.948
759.742;  -85.855; -706.029; -547.948
760.002;    7.097;  -83.029; -143.948
760.262;   17.174;   50.972;  182.051
760.522;  -38.799; -498.028; -574.949
760.782;  -50.122; -738.028; -612.949
761.042;  -24.971; -618.028; -573.950
761.302;   59.506;   55.972;  -18.950
761.562;   56.783; -164.027; -154.951
761.822;   73.885; -710.027; -551.951
762.082;  -29.488;-1104.027;-1093.951
762.342;   65.414; -328.027; -403.952
762.601;   83.715; -567.027; -506.952
762.861;  372.017; -281.026; -207.952
763.121;  411.094; -406.026; -411.953
763.381; 7194.921; -499.026; -485.953
763.640; 8414.973; -139.026; -307.954
763.900;  365.600; -242.026; -203.954
764.160;   91.076; -458.025; -491.954
764.419;  -15.722; -726.025; -782.955
764.679;  -65.045; -795.025; -726.955
764.939;    1.657; -124.025; -210.955
765.198;  -75.316; -608.025; -563.956
765.458;  -88.939; -710.024; -612.956
765.717;  -85.563; -454.024; -590.957
765.976;  -52.286; -428.024; -411.957
766.236;  -79.709; -475.024; -610.957
766.495;   11.718;  260.977;   73.042
766.755;  -82.755;-1090.023; -987.958
767.014;    6.647; -594.023; -665.958
767.273;  -47.652; -373.023; -397.959
767.533;  -46.850; -228.023; -307.959
767.792;  -26.898; -151.022; -188.960
768.051;  -55.571; -228.022; -276.960
768.310;  -88.919; -546.022; -650.960
768.569;   -2.892; -161.022;    4.039
768.828;  -37.966; -285.022; -363.961
769.088; -116.689;-1050.021; -942.961
769.347;  -88.587; -755.021; -599.962
769.606;  -86.735; -876.021; -857.962
769.865; -123.283;-1016.021;-1033.963
770.124;   -1.681; -411.021; -336.963
770.383;  -49.280; -778.020; -910.963
770.641;    4.147; -398.020; -400.964
770.900;  -55.026; -953.020; -846.964
771.159;  -64.424; -851.020; -951.964
771.418;   -1.897; -917.020; -779.965
771.677;  127.555; -224.019; -293.965
771.936;  143.406; -794.019; -865.966
772.194; 2052.908; -465.019; -437.966
772.453;11081.160; -213.019; -391.966
772.712;  791.537;  416.982;  329.033
772.970;  109.964;   32.982;   63.033
773.229;   85.941;  -22.018;  102.033
773.488;  -74.908; -814.018; -770.968
773.746;   62.869;  296.982;  335.032
774.005;    4.971;  190.983;  -22.969
774.263;    5.198;  243.983;  177.031
774.522;  -38.800; -422.017; -548.969
774.780;  -73.673; -484.017; -417.970
775.039;  -83.947; -551.017; -531.970
775.297;  -34.470; -135.016; -351.970
775.555;  -99.793; -489.016; -612.971
775.814; -110.641; -618.016; -570.971
776.072; -115.839; -749.016; -740.971
776.330;  -94.762; -630.016; -520.972
776.589; -114.986; -703.015; -721.972
776.847; -130.434; -645.015; -624.973
777.105; -163.782;-1016.015;-1032.973
777.363;  -77.705; -459.015; -454.973
777.621; -142.003; -660.015; -717.974
777.879;  -36.826;  -42.014;   32.026
778.138; -115.225; -554.014; -717.974
778.396; -107.698; -585.014; -526.975
778.654; -153.471;-1015.014; -970.975
778.912;  -65.094; -269.014; -371.976
779.170; -130.167; -880.013; -803.976
779.427; -143.615; -922.013; -897.976
779.685; -131.689; -880.013; -832.977
779.943;  -92.962; -654.013; -593.977
780.201; -158.335; -964.012; -883.978
780.459; -106.308; -651.012; -610.978
780.717;  -88.206; -440.012; -390.978
780.974; -100.779; -449.012; -490.979
781.232;  -69.178; -358.012; -338.979
781.490;  -86.351; -551.011; -472.979
781.747;  -85.324; -555.011; -476.980
782.005;   28.978;  462.989;  254.020
782.263; -157.445; -542.011;-1004.981
782.520;  -80.293; -326.011; -501.981
782.778; -172.517;-1013.010;-1051.981
783.035; -162.365; -962.010; -938.982
783.293;  -58.563; -248.010; -206.982
783.550;  -63.586; -134.010; -198.982
783.808; -143.659; -764.010; -776.983
784.065; -155.782; -745.009; -874.983
784.322;  -45.331;   25.991;  -86.984
784.580; -130.154; -915.009; -771.984
784.837;  -91.052; -392.009; -466.984
785.094; -134.675; -783.009; -762.985
785.352;  -68.273; -304.008; -404.985
785.609;  -96.221; -934.008; -839.985
785.866;  -84.445; -345.008; -401.986
786.123;  -64.893; -639.008; -583.986
786.380; -109.866; -665.008; -604.987
786.637;  -38.264; -225.007; -380.987
786.895;   -8.787; -456.007; -543.987
787.152;  -39.810; -135.007; -267.988
787.409;  -47.559; -123.007; -225.988
787.666;  -90.307; -299.006; -378.988
787.923; -108.455; -616.006; -695.989
788.179;  -88.728; -551.006; -584.989
788.436;  -98.001; -585.006; -585.990
788.693;  -32.424;  -92.006;  -87.990
788.950;  141.477; -125.005; -112.990
789.207;  227.529; -381.005; -372.991
789.464;  -63.194; -161.005; -301.991
789.720;    0.633;  150.995;  110.009
789.977; -159.590;-1003.005; -671.992
790.234;  -32.588;   44.996;  -66.992
790.490; -147.212; -884.004;-1031.993
790.747;  -22.185;  -85.004;   22.007
791.004;  -29.308; -426.004; -348.993
791.260;  -81.706; -430.004; -560.994
791.517;  -91.904; -843.003; -788.994
791.773;  -46.652; -379.003; -342.994
792.030;  -99.526; -596.003; -660.995
792.286; -101.949; -686.003; -636.995
792.543;  -15.922;  -74.002; -159.995
792.799;  -67.120; -584.002; -382.996
793.055; -154.168;-1179.002;-1210.996
793.312;  -99.241; -827.002; -816.997
793.568;  -56.715; -746.002; -599.997
793.824;    9.712; -226.001; -284.997
794.081;   13.589; -447.001; -508.998
794.337;   68.266; -664.001; -561.998
794.593; 1220.193; -319.001; -271.999
794.849; 6616.820; -746.001; -772.999
795.105;  354.921; -270.000; -261.999
795.361;    6.298; -490.000; -457.000
795.617;  -68.075; -875.000; -945.000
795.873;  -61.700; -360.000; -407.000
796.129;  -35.200; -368.000; -306.000
796.385;  -12.500; -124.000; -156.000
796.641;   79.825;  412.000;  550.000
796.897;  -67.150; -666.000; -635.000
797.153;   66.575;  453.000;  357.000
797.409; -104.100; -785.000; -868.000
797.665;  -68.275; -625.000; -732.000
797.921;  -70.400; -775.000; -762.000
798.176;  -53.025; -744.000; -747.000
798.432;  -41.350; -824.000; -596.000
798.688;  -64.325;-1174.000;-1078.000
798.943;   83.825; -165.000; -147.000
799.199;   -3.750;-1005.000; -959.000
799.455;  221.675;  369.000;  316.000
799.710;  146.375; -813.000; -380.000
799.966;  302.825; -162.000; -160.000
800.221;  462.525; -638.000; -721.000
800.477;10017.225; -743.000; -710.000
800.732; 9610.850; -773.000; -800.000
800.988;  639.050;  205.000;  -19.000
801.243; 1668.600; -454.000; -344.000
801.498; 7881.825; -814.000; -739.000
801.754;  467.200; -289.000; -163.000
802.009;   89.025; -257.000; -335.000
802.264;  -41.175; -967.000;-1033.000
802.520;   26.050;  222.000;   -3.000
802.775;  -48.725; -524.000; -359.000
803.030;   57.525;  395.000;  356.000
803.285; -118.075; -840.000; -903.000
803.540;  -58.775; -686.000; -699.000
803.795;  -48.925; -648.000; -583.000
804.051;  -51.225; -279.000; -346.000
804.306;    6.225;  168.000;  128.000
804.561;  137.050;  451.000;  362.000
804.816;  132.400;  714.000;  861.000
805.071;    1.900; -185.000; -280.000
805.325;  221.900; -257.000; -427.000
805.580;  -87.125; -841.000; -877.000
805.835;   -7.600; -204.000; -297.000
806.090;  -72.450; -760.000; -676.000
806.345;  -13.675; -344.000; -264.000
806.600;  -27.175; -549.000; -632.000
806.854;  -24.225; -408.000; -538.000
807.109;  -22.475; -493.000; -577.000
807.364;   -1.300; -407.000; -328.000
807.618;    7.675; -415.000; -381.000
807.873;   55.550; -470.000; -494.000
808.128;  106.200; -257.000; -518.000
808.382;  113.100; -224.000; -332.000
808.637;   82.950; -440.000; -511.000
808.891;  190.075; -257.000; -180.000
809.146;   97.650; -902.000; -794.000
809.400;  271.200; -848.000; -923.000
809.654;  337.850; -779.000; -551.000
809.909;  490.200; -841.000; -927.000
810.163; 6202.675; -813.000; -651.000
810.418;17507.825; -940.000; -861.000
810.672; 1070.725; -685.000; -690.000
810.926;  730.350; -993.000; -973.000
811.180; 1365.425; -439.000; -372.000
811.434;31056.650;  240.000;  135.000
811.689;13613.550; -231.000; -365.000
811.943;  672.900; -936.000; -953.000
812.197;  331.275; -893.000; -671.000
812.451;  145.675; -379.000; -514.000
812.705;   -7.750; -809.000; -619.000
812.959;   -5.775; -263.000; -388.000
813.213;    9.500; -283.000; -209.000
813.467;   67.775;  470.000;  253.000
813.721;  -95.550; -764.000; -792.000
813.975; -109.825; -826.000; -877.000
814.229;   57.350;  430.000;  353.000
814.482;  -68.575; -517.000; -566.000
814.736; -115.850; -766.000; -744.000
814.990; -124.300; -779.000; -872.000
815.244;  -42.975; -228.000; -285.000
815.497;  -94.900; -636.000; -601.000
815.751;  -39.625; -141.000;   82.000
816.005;  -87.875; -470.000; -586.000
816.258;  -61.525; -510.000; -363.000
816.512;  -95.825; -693.000; -610.000
816.766;    5.100;  121.000;  157.000
817.019;   22.475;  148.000;  149.000
817.273; -105.600;-1000.000; -802.000
817.526;  -41.075; -206.000; -173.000
817.779;  -48.675;-1049.000; -960.000
818.033;  -72.325; -693.000; -807.000
818.286; -118.850; -725.000; -792.000
818.540;  -85.250; -403.000; -403.000
818.793;  -77.025; -402.000; -489.000
819.046;  -95.025; -582.000; -520.000
819.299;  -35.525; -157.000; -166.000
819.553; -106.025; -552.000; -592.000
819.806; -154.675;-1016.000; -838.000
820.059;  -65.075; -334.000; -354.000
820.312;    9.625;  152.000;  185.000
820.565;   -9.450;  110.000;  -27.000
820.818;  -44.300;  -59.000; -173.000
821.071; -156.400;-1041.000; -957.000
821.324;  -94.425; -536.000; -540.000
821.577; -101.450; -457.000; -483.000
821.830;  -59.425; -270.000; -172.000
822.083; -121.200; -733.000; -288.000
822.336;  -41.125; -261.000; -167.000
822.589; -134.950; -805.000; -688.000
822.842; -145.675; -875.000; -770.000
823.094; -167.875;-1076.000;-1114.000
823.347; -122.900; -925.000; -729.000
823.600;   12.975;  402.000;  187.000
823.853;  -50.225; -311.000; -267.000
824.105;  -55.625; -331.000; -575.000
824.358; -100.900; -617.000; -716.000
824.611;   15.825;  234.000;   40.000
824.863;  -36.525; -612.000; -591.000
825.116;   44.700;  -33.000;   27.000
825.368;   78.200; -366.000; -372.000
825.621;  165.500; -186.000; -240.000
825.873;   83.200; -704.000; -737.000
826.126;  554.375; -669.000; -641.000
826.378;11290.125; -389.000; -505.000
826.630; 3067.525; -890.000; -898.000
826.883;   44.275; -754.000; -693.000
827.135;   44.300; -279.000; -270.000
827.387; -100.675; -893.000; -839.000
827.639;  -22.675;  -86.000;   32.000
827.892; -121.175; -742.000; -582.000
828.144; -143.275; -848.000; -804.000
828.396;  -37.925;  104.000;  -80.000
828.648;  -90.600; -440.000; -333.000
828.900; -146.800; -702.000; -795.000
829.152; -110.950; -684.000; -683.000
829.404;  -70.400; -215.000; -267.000
829.656;  -48.425;  321.000;  214.000
829.908;  -17.675;  393.000;  229.000
830.160; -160.100;-1064.000;-1047.000
830.412;  -89.350; -481.000; -430.000
830.664; -119.050; -557.000; -665.000
830.916;  -80.625; -268.000; -206.000
831.167; -177.775;-1073.000; -951.000
831.419;  -97.700; -623.000; -566.000
831.671; -154.575; -764.000; -809.000
831.923;  -92.925; -311.000; -447.000
832.174;  -74.075; -273.000; -331.000
832.426; -114.600; -493.000; -582.000
832.678; -178.125;-1043.000;-1091.000
832.929; -164.550; -947.000; -935.000
833.181;  -71.550; -575.000; -677.000
833.432;  -46.325;  -59.000; -186.000
833.684;  -20.950;  112.000;  -27.000
833.935; -108.300; -610.000; -566.000
834.187; -122.325; -829.000; -823.000
834.438;  -40.125;  -58.000;  -25.000
834.689;  -58.575; -255.000; -123.000
834.941;  -42.550; -343.000; -244.000
835.192;  -98.325; -590.000; -533.000
835.443;  -99.075; -419.000; -506.000
835.695;  -22.700;  138.000;  -16.000
835.946;  -99.975; -608.000; -378.000
836.197; -102.025; -599.000; -622.000
836.448;  -92.775; -528.000; -395.000
836.699;  -56.225; -253.000; -341.000
836.950;   -3.950;   72.000;    7.000
837.201; -148.000;-1003.000; -987.000
837.452;  -44.250; -356.000; -170.000
837.703; -116.825; -791.000; -737.000
837.954;  -46.175; -205.000; -365.000
838.205;  -83.700;-1029.000;-1008.000
838.456;  165.325; -196.000; -282.000
838.707;   -0.700; -423.000; -519.000
838.958;    1.700; -634.000; -647.000
839.209;  292.600;   18.000;   40.000
839.460;  113.200; -439.000; -201.000
839.710;  174.550; -135.000; -297.000
839.961;  420.125;  730.000;  612.000
840.212;  342.425; -382.000; -497.000
840.462; 1083.475; -328.000; -277.000
840.713;17325.300; -571.000; -536.000
840.964; 7673.600;  -62.000; -143.000
841.214;  511.500; -384.000; -624.000
841.465;  564.750; -214.000; -141.000
841.715;  502.300; -417.000; -380.000
841.966;  640.475; -746.000; -685.000
842.216; 8431.100; -330.000; -431.000
842.466;34989.325; -169.000; -313.000
842.717; 2113.725; -964.000; -952.000
842.967;  312.875; -635.000; -641.000
843.217;  291.625;   20.000;   28.000
843.468;   82.775; -104.000; -132.000
843.718;  -50.450; -718.000; -726.000
843.968;  -95.100; -837.000; -765.000
844.218;   33.575; -315.000; -262.000
844.469;  -39.450; -577.000; -561.000
844.719;  -99.525; -537.000; -682.000
844.969;  -92.650; -550.000; -580.000
845.219; -139.750; -814.000; -862.000
845.469;  -77.525; -392.000; -342.000
845.719; -139.175; -792.000; -884.000
845.969;   -5.925;  119.000;  174.000
846.219; -106.875; -738.000; -720.000
846.469;   20.375;  464.000;  432.000
846.718;  -33.725; -115.000;   31.000
846.968; -143.650; -827.000; -827.000
847.218;  -48.500; -224.000; -371.000
847.468; -102.075; -586.000; -555.000
847.718; -145.900; -827.000; -798.000
847.967; -128.225; -826.000; -915.000
848.217;  -80.250; -449.000; -569.000
848.467;  -53.425; -405.000; -376.000
848.716; -124.650; -708.000; -725.000
848.966;    5.350; -372.000; -358.000
849.215;  -60.525; -428.000; -419.000
849.465; -112.225; -785.000; -615.000
849.714; -129.600;-1132.000;-1150.000
849.964;  -64.850; -551.000; -613.000
850.213;  -13.075; -393.000; -355.000
850.463;   73.425;  137.000;  340.000
850.712;    3.100; -542.000; -567.000
850.961;   15.600; -739.000; -678.000
851.211;   96.475; -513.000; -504.000
851.460;  178.575; -635.000; -650.000
851.709;  552.100;  -25.000;   18.000
851.958; 9790.900; -912.000; -750.000
852.208;13177.650; -859.000; -879.000
852.457;  482.025; -181.000;  -13.000
852.706;   67.925; -791.000; -823.000
852.955;   17.450; -507.000; -528.000
853.204;  -69.150; -521.000; -461.000
853.453;  -88.925; -418.000; -458.000
853.702; -135.475; -660.000; -750.000
853.951; -106.625; -532.000; -520.000
854.200; -123.075; -613.000; -562.000
854.449; -133.650; -695.000; -661.000
854.698;  -97.550; -340.000; -279.000
854.946;  -66.525; -181.000; -284.000
855.195; -144.950; -843.000; -868.000
855.444;  -90.575; -395.000; -420.000
855.693; -125.650; -345.000; -432.000
855.941; -111.575; -387.000; -516.000
856.190;  -49.700; -256.000; -382.000
856.439; -121.875; -652.000; -703.000
856.687;  -61.950;  -99.000;  -72.000
856.936; -120.375; -621.000; -323.000
857.184; -181.750;-1067.000;-1020.000
857.433; -107.875; -423.000; -512.000
857.681; -169.025; -989.000; -953.000
857.930;  -75.875; -282.000; -433.000
858.178; -157.575; -856.000; -929.000
858.427; -150.600; -802.000; -781.000
858.675; -130.425; -377.000; -544.000
858.923; -108.550; -527.000; -819.000
859.172; -168.175;-1094.000;-1070.000
859.420;  -87.475; -339.000; -239.000
859.668; -130.050; -624.000; -628.000
859.916;  -27.575;  109.000;  115.000
860.164; -105.725; -699.000; -603.000
860.413;  260.150; -878.000; -696.000
860.661;  238.750; -709.000; -577.000
860.909;  -81.975; -339.000; -325.000
861.157;  -74.275; -277.000; -444.000
861.405; -117.375; -534.000; -670.000
861.653;   -3.475;  310.000;  310.000
861.901;  164.975; -543.000; -613.000
862.149;   -0.875; -801.000; -824.000
862.396;  -88.675; -297.000; -187.000
862.644;  -89.575; -368.000; -347.000
862.892;  -41.425;   98.000;  138.000
863.140; -121.750; -549.000; -530.000
863.388; -161.575; -815.000; -759.000
863.635; -127.500; -642.000; -601.000
863.883;  -22.825;  231.000;  190.000
864.131;  -90.900; -288.000; -357.000
864.378; -142.725; -675.000; -540.000
864.626;  -97.875; -347.000; -415.000
864.873; -119.200; -556.000; -505.000
865.121; -149.500; -714.000; -799.000
865.368;  -38.000; -173.000;   75.000
865.616;  -44.150;  -33.000;  -40.000
865.863;  -70.800; -462.000; -506.000
866.111; -104.575; -795.000; -824.000
866.358;   21.300; -426.000; -420.000
866.605; 2099.725;  -64.000; -804.000
866.853; 2409.175; -621.000; -537.000
867.100;  -44.000; -728.000; -775.000
867.347;  -96.250; -672.000; -611.000
867.594;  -89.600; -740.000; -714.000
867.841;   84.850;   97.000;   17.000
868.089; -152.000; -746.000; -698.000
868.336; -103.000; -477.000; -420.000
868.583; -148.125; -637.000; -741.000
868.830;  -60.300; -131.000; -170.000
869.077; -173.725; -859.000; -787.000
869.324; -129.775; -502.000; -458.000
869.571; -126.075; -398.000; -430.000
869.818; -123.075; -485.000; -439.000
870.065; -105.800; -439.000; -513.000
870.311; -120.200; -456.000; -542.000
870.558; -105.625; -332.000; -311.000
870.805;  -92.475; -320.000; -384.000
871.052; -103.550; -494.000; -369.000
871.298;  -57.950; -204.000; -131.000
871.545;  -70.175; -151.000; -185.000
871.792;  -98.850; -173.000; -222.000
872.038;  -63.875;   43.000; -126.000
872.285; -120.050; -496.000; -387.000
872.532;  -99.750; -357.000; -387.000
872.778;    8.025;  556.000;  403.000
873.025;  -85.775; -384.000; -359.000
873.271;    9.850;  501.000;  578.000
873.517;  -35.400; -133.000; -209.000
873.764;  -30.450; -193.000;  -80.000
874.010;  -74.875; -143.000; -230.000
874.257;  -47.800;  123.000;   90.000
874.503; -136.025; -579.000; -479.000
874.749;  -71.550;   31.000;  275.000
874.995;  -59.775;  -80.000;  -20.000
875.242; -118.900; -540.000; -478.000
875.488; -111.425; -414.000; -439.000
875.734;  -62.875; -106.000; -234.000
875.980;  169.350; -872.000;-1032.000
876.226;  357.125; -157.000; -255.000
876.472;   -3.800;  343.000;  237.000
876.718;  -28.375;  184.000;  158.000
876.964;  -49.600;   56.000;   55.000
877.210; -141.900; -547.000; -677.000
877.456; -131.975; -630.000; -557.000
877.702; -157.325; -821.000; -832.000
877.948;  -98.250; -377.000; -497.000
878.193;   12.900;  361.000;  255.000
878.439;  -94.225; -487.000; -472.000
878.685; -105.000; -272.000; -343.000
878.931; -135.525; -618.000; -676.000
879.176;  -81.425; -201.000; -201.000
879.422; -178.075; -933.000; -820.000
879.668;   68.150;   10.000;   79.000
879.913;  143.775;   53.000;  137.000
880.159;  -46.375; -112.000;  -17.000
880.404;  -37.775; -152.000; -162.000
880.650;  -48.175;   91.000;  141.000
880.895; -152.225; -670.000; -710.000
881.141; -132.400; -454.000; -428.000
881.386; -150.050; -503.000; -658.000
881.631;  -76.000; -311.000; -166.000
881.877;  -32.625;  112.000;  -13.000
882.122; -133.975; -684.000; -600.000
882.367;  -93.975; -136.000; -186.000
882.612;  -86.450;  -80.000; -176.000
882.858; -158.900; -877.000; -823.000
883.103; -104.075; -297.000; -267.000
883.348; -149.850; -759.000; -852.000
883.593; -145.325; -677.000; -602.000
883.838;  -52.100; -311.000;  -24.000
884.083;   21.650;  353.000;  288.000
884.328;  -98.525; -564.000; -545.000
884.573;  -59.000; -196.000; -143.000
884.818;  185.675; -694.000; -531.000
885.063;  193.025; -348.000; -315.000
885.308; -109.400; -475.000; -398.000
885.553;  -11.800;  245.000;  325.000
885.797; -127.925; -545.000; -615.000
886.042;  -58.500;    8.000;   58.000
886.287;  -89.000; -253.000; -211.000
886.532;  -66.625;   26.000;  204.000
886.776; -103.875; -407.000; -525.000
887.021; -141.375; -621.000; -574.000
887.265; -157.625; -685.000; -689.000
887.510; -118.825; -557.000; -496.000
887.755;  -98.025; -194.000; -164.000
887.999; -154.675; -552.000; -575.000
888.244;  -56.375;  -58.000;  161.000
888.488;    0.200;  371.000;  393.000
888.732; -123.650; -368.000; -520.000
888.977; -121.525; -622.000; -567.000
889.221; -165.225; -683.000; -659.000
889.465; -122.700; -422.000; -566.000
889.710;  -90.700;  -56.000; -299.000
889.954;  -15.700;  579.000;  467.000
890.198; -147.175; -584.000; -707.000
890.442; -149.850; -716.000; -712.000
890.687; -162.850; -800.000; -753.000
890.931;  -96.375; -273.000; -210.000
891.175; -137.750; -502.000; -500.000
891.419;  -69.600; -105.000; -110.000
891.663;  -79.900; -239.000; -112.000
891.907; -176.150; -801.000; -545.000
892.151; -186.125; -920.000; -815.000
892.395; -116.075; -274.000; -387.000
892.638;  -20.600;  408.000;  291.000
892.882; -179.700; -780.000; -867.000
893.126;   14.200;  758.000;  558.000
893.370;  -86.100; -167.000; -168.000
893.614; -146.900; -714.000; -715.000
893.857;  -91.675; -183.000; -197.000
894.101; -138.775; -527.000; -631.000
894.345;  -60.100;  300.000;  150.000
894.588;   12.575;  569.000;  380.000
894.832;  -91.700; -178.000;  -84.000
895.075;  -80.975;   15.000;  -92.000
895.319; -117.175; -552.000; -420.000
895.563; -115.725; -413.000; -353.000
895.806; -148.750; -628.000; -741.000
896.049;  -72.550; -576.000; -368.000
896.293;   86.750;  527.000;  405.000
896.536;  -69.100; -465.000; -468.000
896.779;  -57.100; -149.000;   -1.000
897.023; -134.125; -751.000; -714.000
897.266;  -46.750;  325.000;  269.000
897.509; -189.225; -900.000; -901.000
897.752;  -55.175;  149.000;  171.000
897.996; -196.200; -972.000; -864.000
898.239;  -37.425;  168.000;  102.000
898.482; -105.375; -431.000; -453.000
898.725;  -36.000;  101.000;   53.000
898.968; -155.900; -609.000; -744.000
899.211; -113.325; -513.000; -361.000
899.454; -131.775; -633.000; -539.000
899.697;  -66.850;   90.000;  -43.000
899.940; -168.700; -761.000; -757.000
900.182;  -96.625; -335.000; -405.000
900.425;  -89.825; -150.000; -298.000
900.668;  -35.250;  491.000;  350.000
900.911; -108.075; -292.000; -345.000
901.154;  -56.625;  141.000;   -3.000
901.396; -148.675; -407.000; -412.000
901.639; -147.425; -430.000; -496.000
901.882; -182.550; -790.000; -809.000
902.124;  -72.200;  -29.000; -143.000
902.367; -113.925; -315.000; -361.000
902.609; -139.500; -476.000; -453.000
902.852;  -80.875; -108.000; -260.000
903.094; -126.350; -458.000; -337.000
903.337;  -60.450;  -26.000;   53.000
903.579; -103.900; -228.000; -441.000
903.821; -161.750; -597.000; -744.000
904.064;  -65.300;   85.000;  127.000
904.306;  -96.075; -126.000; -166.000
904.548; -105.800; -152.000; -366.000
904.790; -103.475; -195.000; -340.000
905.033; -139.150; -625.000; -577.000
905.275; -132.075; -513.000; -524.000
905.517;   42.350;  468.000;  256.000
905.759;  -70.925; -667.000; -761.000
906.001;  -98.250; -322.000; -369.000
906.243;  -82.200; -162.000; -224.000
906.485;  104.850; -265.000; -207.000
906.727;  120.475; -499.000; -542.000
906.969;  -35.050;  -30.000; -135.000
907.211;  128.325; -316.000; -382.000
907.453;  279.375; -188.000; -237.000
907.695;   14.100; -158.000; -385.000
907.936;   34.100;  818.000;  706.000
908.178;  -58.425;   92.000; -135.000
908.420;  -81.975; -111.000; -162.000
908.662; -129.100; -633.000; -682.000
908.903;  -85.325; -208.000; -123.000
909.145;  -59.150; -240.000; -305.000
909.386;    0.400;  315.000;  280.000
909.628;   50.875;  363.000;  397.000
909.870;    4.250;   29.000;  264.000
910.111; -110.675; -809.000; -949.000
910.353;   14.575; -123.000; -161.000
910.594;    0.825; -574.000; -606.000
910.835;   75.875; -265.000; -326.000
911.077;  153.575; -503.000; -604.000
911.318;  285.125; -505.000; -471.000
911.559;  484.100; -577.000; -880.000
911.801; 1303.875; -284.000; -280.000
912.042; 9947.475;  -50.000; -159.000
912.283;27369.400;  404.000;  371.000
912.524; 4554.125; -396.000; -457.000
912.765;  498.400; -193.000;   79.000
913.006;  223.750; -307.000; -338.000
913.247;   41.175; -270.000; -290.000
913.488;    2.500;  -43.000;   30.000
913.729;  -71.225; -373.000; -373.000
913.970;  -51.600;  -96.000; -292.000
914.211;  -76.800; -160.000; -198.000
914.452;  -58.925; -118.000;  -11.000
914.693;   13.150;  510.000;  592.000
914.934;   -1.500;  510.000;  440.000
915.175;  -60.250;   53.000;  -95.000
915.415;  -73.925; -137.000;   27.000
915.656;  -74.600;  -28.000;  192.000
915.897;  -96.875; -252.000;  -82.000
916.137;  -74.050;   74.000;   -9.000
916.378; -121.100; -573.000; -517.000
916.619;  -86.550; -159.000;  -63.000
916.859;  -27.375;  303.000;  330.000
917.100;  114.900; 1655.000; 1070.000
917.340;   49.550;  930.000;  728.000
917.581;   47.200;  965.000;  789.000
917.821;  -39.750; -171.000;  143.000
918.061;   17.775; -199.000;  -72.000
918.302;  -66.050; -152.000; -211.000
918.542;  -24.050;  -22.000;    3.000
918.782;   31.900;  369.000;  377.000
919.023;  132.225;  360.000;  427.000
919.263; 1708.875; 8131.000;  202.000
919.503; 1128.750; -137.000;  -54.000
919.743;  636.850;  390.000;  266.000
919.983;  274.000; -134.000;  -26.000
920.223;   60.750;  135.000;   14.000
920.463;  131.675;  631.000;  554.000
920.703;  130.325;   84.000;   39.000
920.943;  175.150; -110.000;   90.000
921.183;  230.575; -414.000; -405.000
921.423;  487.725;  307.000;  546.000
921.663;  704.750; -174.000; -257.000
921.903; 1518.725;  237.000;  173.000
922.143; 8294.325;  372.000;  389.000
922.383;33141.150;  158.000;  115.000
922.622;12117.300; -120.000;  -15.000
922.862; 1292.375;  796.000;  785.000
923.102;  468.800;  -51.000;   33.000
923.341;  198.375;   59.000;   74.000
923.581;   70.500;  450.000;  360.000
923.821;   28.250;  301.000;  398.000
924.060;    9.425;  351.000;  193.000
924.300;  -48.275;  -16.000; -128.000
924.539;  -12.075;  584.000;  473.000
924.779;   15.950;  812.000;  597.000
925.018;  -44.775;  247.000;  353.000
925.257;  -12.475;  595.000;  666.000
925.497;  -40.750;  447.000;  412.000
925.736;  -72.125;  -35.000;  102.000
925.975;    6.075;  687.000;  669.000
926.214;   30.500;  907.000;  850.000
926.454;   34.300;  706.000;  757.000
926.693;  -40.350;  419.000;  543.000
926.932;   32.350; 1021.000;  825.000
927.171;   57.600; 1107.000; 1044.000
927.410;   40.400; 1144.000;  967.000
927.649;   29.100;  924.000;  742.000
927.888;  -11.375;  590.000;  564.000
928.127;    6.300;  680.000;  678.000
928.366;   13.950;  842.000;  826.000
928.605;   45.075;  831.000;  737.000
928.844;  231.625; 1451.000; 1393.000
929.083;  597.750;  770.000;  613.000
929.321;  353.600; 1335.000; 1359.000
929.560;   92.875; 1158.000; 1122.000
929.799;  -33.125;  574.000;  475.000
930.038;   64.225; 1025.000; 1394.000
930.276;  -36.900;  334.000;  397.000
930.515;    1.150;  827.000;  681.000
930.753;  -25.600;  614.000;  589.000
930.992;  -10.850;  664.000;  717.000
931.230;    9.250;  847.000;  847.000
931.469;  166.800; 2162.000;  892.000
931.707;   69.525;  840.000;  751.000
931.946;   72.375; 1278.000; 1344.000
932.184;   46.700; 1437.000; 1175.000
932.423;   30.850; 1265.000;  963.000
932.661;   85.600; 1296.000; 1428.000
932.899;   22.100;  987.000;  821.000
933.137;   19.175;  754.000;  564.000
933.376;  151.500; 1664.000; 1335.000
933.614;  158.800; 1759.000; 1196.000
933.852;   57.450; 1357.000; 1171.000
934.090;  141.125; 1722.000; 1747.000
934.328;   92.700; 1252.000; 1457.000
934.566;   81.175; 1431.000; 1110.000
934.804;  131.550; 1263.000; 1309.000
935.042;  458.225; 1861.000; 1850.000
935.280; 1727.975; 2088.000; 2063.000
935.518; 1737.825; 2113.000; 2007.000
935.756;  372.925; 2481.000; 2316.000
935.994;  161.475; 1808.000; 1751.000
936.231;  332.650; 2890.000; 2950.000
936.469;  180.350; 2367.000; 2378.000
936.707;  170.300; 2220.000; 2167.000
936.945;  232.925; 2825.000; 2882.000
937.182;  208.675; 2679.000; 2741.000
937.420;  300.350; 3602.000; 3031.000
937.657;  415.725; 3365.000; 3478.000
937.895;  373.125; 3331.000; 3488.000
938.133;  313.850; 3540.000; 3528.000
938.370;  355.175; 3896.000; 4191.000
938.607;  404.500; 4488.000; 4205.000
938.845;  535.150; 5587.000; 5549.000
939.082;  470.275; 5387.000; 5177.000
939.320;  551.875; 5799.000; 5728.000
939.557;  647.600; 6549.000; 6491.000
939.794;  726.425; 7285.000; 7097.000
940.031;  899.125; 8421.000; 8368.000
940.269; 1112.825; 9552.000; 9107.000
940.506; 1119.250;10901.000;10507.000

