
Integration time [ms]: 100.000
Averaging Nr. [scans]: 40
Smoothing Nr. [pixels]: 0
Data measured with spectrometer [name]: 2101013U2
Wave   ;Sample   ;Dark     ;Reference
[nm]   ;[counts] ;[counts] ;[counts] 

394.013;   42.665; -450.257; -315.536
394.305;  169.588; -461.258; -419.536
394.596; 1101.585; -676.269; -527.514
394.887; 2794.277; -796.268; -654.518
395.178; 1069.157;  145.736;   11.476
395.470;   61.443; -210.263; -356.526
395.761;  182.366;  305.734;  394.479
396.052;  226.909; -545.284; -306.489
396.343;  232.704; -557.276; -454.503
396.634;   83.973; -200.279; -290.497
396.926;   82.524; -618.268; -565.517
397.217;  105.259;   11.725;  -17.504
397.508;   47.275; -366.273; -154.507
397.799;   37.923; -555.279; -571.497
398.090;   -0.208; -973.280; -902.495
398.381;  103.484;   11.708;  -11.473
398.672;   -5.740; -585.292; -742.473
398.963;   30.654; -348.279; -373.498
399.254;   84.969;   54.709; -209.475
399.545;  -52.487;-1017.266; -883.520
399.836;   65.693; -407.277; -343.501
400.127;   33.785; -205.295; -209.468
400.418;   47.569; -423.274; -392.506
400.709;   44.204; -359.281; -333.493
401.000;   47.898; -268.291; -309.476
401.290;   84.347;  225.698;  115.545
401.581;   72.267; -166.286; -228.485
401.872;   17.282; -542.298; -486.462
402.163;   45.528; -313.296; -252.467
402.454;   80.320; -123.291; -163.475
402.744;   47.819; -844.297; -813.465
403.035;  373.900; -226.293;  -86.471
403.326;  476.113; -366.292; -384.474
403.617;  364.277;  204.701;  165.539
403.907;  262.065; -593.283; -679.490
404.198; 2481.151; -545.307; -599.446
404.489; 6363.645; -618.283; -588.491
404.779; 2069.475; -618.302; -660.456
405.070;  236.629;  -67.304; -174.451
405.360;  335.377; -259.293; -238.472
405.651;  363.187;  125.699;   98.542
405.942;  170.712;  209.714;  127.516
406.232;  208.827; -432.285; -413.487
406.523;  406.270;  641.706;  758.530
406.813;   56.115; -579.286; -644.484
407.104;  302.183;  261.708;  144.527
407.394;  145.903; -604.299; -591.462
407.685;  138.776;  336.715;  222.513
407.975;   53.819; -400.283; -382.490
408.265;  108.910; -134.289; -190.478
408.556;   67.167; -472.291; -459.475
408.846;  162.771;  474.706;  429.530
409.137;   88.543;   -1.288; -216.480
409.427;   45.152; -193.285; -271.487
409.717;   36.703; -776.273; -692.508
410.007;  128.970;    4.715; -170.486
410.298;   85.388; -360.295; -342.469
410.588;   64.224; -495.285; -510.486
410.878;   31.504; -792.287; -873.482
411.168;  117.160; -481.298; -478.463
411.459;  128.763; -295.283; -242.489
411.749;   47.966; -609.292; -507.474
412.039;   62.066; -755.289; -386.480
412.329;  193.686;   40.722;  132.501
412.619;  170.565;  -62.286; -148.485
412.909;  362.987;  639.711;  594.521
413.199;  294.393; -130.280; -251.495
413.490;  377.278;  521.710;  352.523
413.780;  146.922;-1013.279; -913.496
414.070;  329.680;  -46.276;  235.497
414.360;  336.507; -729.278; -666.498
414.650;  412.200; -726.288; -688.482
414.940;  523.196; -538.280; -441.496
415.230;  913.122;   50.712;   74.519
415.520; 6236.409;  155.730;   66.486
415.809;24320.454; -305.281; -125.493
416.099;19026.171; -388.277; -229.501
416.389; 5362.892;  435.726;  236.494
416.679; 3206.372;   91.738;   85.473
416.969;  537.059; -527.287; -503.483
417.259;  594.748;  341.721;  171.503
417.549;  687.628;  522.718;  318.508
417.838; 1711.476; -205.268; -147.518
418.128; 5645.908;  650.710;  492.522
418.418; 4734.434; -491.272; -579.509
418.708; 3196.117;    9.726;  -48.506
418.997;12013.688; -474.275; -480.505
419.287;12583.874; -733.273; -790.507
419.577;12028.538; -160.283; -123.489
419.866;39461.019; -588.277; -498.501
420.156;40270.830; -242.270;  -55.513
420.446; 7244.039; -112.263;  -26.526
420.735;  827.249; -376.271; -446.512
421.025;  810.557; 1830.722;  315.502
421.314;  614.522; -203.271; -226.512
421.604; 1190.144;   89.732;  233.484
421.893;  694.318; -705.271; -602.511
422.183;  218.015; -487.263; -461.526
422.472;  371.020;  -36.271; -107.511
422.762;  433.594; -416.266; -379.521
423.051;  225.731; -916.276; -916.503
423.341;  311.526; -491.273; -439.507
423.630;  388.725; -121.265;   15.477
423.919;  363.712;   58.725;   49.495
424.209;  385.295;  -31.263;   56.473
424.498;  491.948;   68.732;  161.483
424.787; 1100.030; -535.267; -601.518
425.077; 3385.474;   34.735;   29.478
425.366; 4608.751; -734.262; -744.528
425.655;10184.252;  639.727;  259.493
425.945;22877.480; -313.247; -268.554
426.234;12814.774;  117.741;  300.467
426.523; 5129.804;  -86.259; -350.534
426.812; 7090.790;  107.734;  159.480
427.101;10536.515; -127.269; -323.515
427.390;13141.334;  -55.270;  -86.514
427.680; 2806.148; -624.257; -411.538
427.969;  454.134; -330.255; -301.540
428.258;  295.690; -385.257; -477.536
428.547;  502.689;  449.728;  397.490
428.836; 1104.125; -421.253; -398.543
429.125; 1577.306; -199.259;  -72.534
429.414;  767.773; -330.251; -294.548
429.703; 3200.273; -231.251; -213.548
429.992; 9539.077; -938.250; -828.549
430.281; 6324.257; -397.264; -331.524
430.570;  551.264;  -21.252;   32.454
430.859;  504.078;  279.741;  352.466
431.148;  431.276;  636.752;  631.446
431.437;  276.788;  391.748;  367.454
431.725;  159.342; -544.257; -481.536
432.014;  126.658; -845.253; -756.545
432.303;  354.752; -149.239; -105.569
432.592;  567.439; -460.263; -178.525
432.881; 1037.752; -601.248; -437.554
433.169; 6379.985; -343.255;  -61.540
433.458;13083.011;  445.765;  540.424
433.747; 5443.631; -397.261; -289.529
434.036;  839.153; -275.242; -280.564
434.324; 2076.714; -395.249; -379.551
434.613; 3710.021;   40.757;  159.437
434.902; 1226.867;  333.760;  439.433
435.190;  465.575;   75.761;  295.431
435.479;  267.578;  -52.245;   83.441
435.767;   94.161; -411.244; -427.561
436.056;  181.648; -340.242; -294.563
436.345;  365.794; -372.240; -223.568
436.633;  380.959;   60.750;  383.450
436.922;  224.146;  208.760;  414.432
437.210;  461.700; -194.236;    1.426
437.499; 1448.959; -583.235; -432.576
437.787; 1638.250; -339.236;  -10.574
438.075;  430.156;   56.761;  162.430
438.364;  585.184;  -44.238;  250.429
438.652;  342.513; -286.226; -138.592
438.941;  140.227;    3.770;  269.415
439.229;  -10.814; -665.252; -466.545
439.517;   20.717; -160.234;  -85.577
439.806;  -11.246; -501.225; -290.595
440.094;  159.100;  377.766;  650.421
440.382;  151.503; -653.233; -302.580
440.670;  166.258; -361.235; -285.576
440.959;   19.972; -347.223; -170.599
441.247;   64.289; -151.229; -109.587
441.535;   80.215; -266.235;   31.423
441.823;   19.972; -497.234; -305.578
442.111;  172.518;  173.771;  327.412
442.400;  450.302; -628.245; -335.559
442.688; 1100.774; -111.234; -620.579
442.976;  778.184; -786.213; -450.617
443.264;   83.161; -324.224; -364.597
443.552;   89.840; -258.226;   51.408
443.840;  161.814;  602.765;  876.423
444.128;  102.678;  265.767;  269.420
444.416;    7.721; -694.228; -312.588
444.704;   18.776; -465.219;  -92.605
444.992;   66.142;   -0.226;  240.407
445.280;   33.228; -517.230;  -94.585
445.568;   19.113; -694.212; -396.618
445.856;  282.835; -174.221;  357.398
446.143;  621.648;  -54.220;   -7.604
446.431;  507.999;  -25.228;  625.411
446.719;  219.221;  489.783;  675.391
447.007;  159.972;  481.769;  705.416
447.295;  172.719;  597.777;  871.402
447.583;   77.787; -464.229;  -34.587
447.870;  133.807; -434.221; -202.601
448.158;  359.477; -104.230;  129.415
448.446;  262.049; -800.219; -338.604
448.733;  143.762;   13.776;  269.403
449.021;  239.338;   60.788;  341.382
449.309;  163.178; -296.210;  208.379
449.596;  207.417;  128.783;   59.392
449.884;  152.001; -571.222; -325.600
450.172;  170.980; -756.227; -406.590
450.459;  461.268;  645.786;  780.387
450.747; 2508.490; -411.218; -147.608
451.034; 7998.076;  493.772;  889.411
451.322; 6659.271; -413.214; -170.614
451.609;  570.314;  292.777;  508.403
451.897;  592.841; -550.203; -183.634
452.184; 1842.844; -622.223; -400.598
452.472; 1781.649;   97.792;  269.375
452.759;  313.149;  512.781;  864.395
453.047;  102.335; -407.212; -125.617
453.334;   58.757; -732.219; -216.606
453.621;   47.548; -438.214; -161.615
453.909;  104.933;   13.796;  384.368
454.196;   92.703; -299.199; -123.641
454.483;  189.904;  317.798;  540.364
454.771;  128.452; -215.208;  196.374
455.058;   32.355; -316.207;  102.374
455.345;  110.208;   71.807;  344.347
455.632;  100.634; -128.207;  235.373
455.919;   47.176;  -82.196;  182.354
456.207;  -59.892; -774.198; -450.642
456.494;  -17.709; -475.200;  -66.639
456.781;   -7.801; -399.202; -198.635
457.068;   55.540; -253.206;  -29.628
457.355;  -23.309; -698.206; -401.629
457.642;   -0.703; -552.205; -290.630
457.929;   -7.026; -778.194; -417.651
458.216;   59.585; -575.212; -354.617
458.503;  248.004; -173.193;  -19.652
458.790;  241.825; -864.208; -630.625
459.077;  253.179;  -77.202;  110.364
459.364;  811.292; -350.195; -210.649
459.651; 1756.288;  -46.206;  220.372
459.938;  813.315; -864.209; -665.623
460.225;  127.707;  132.799;  276.363
460.512;  -50.952; -836.197; -688.645
460.799;   92.239;  -32.218;  320.392
461.086;   50.995; -370.200; -251.640
461.372;   22.933; -509.198; -279.642
461.659;   82.652; -165.196;  108.354
461.946;   23.728; -445.193;  -54.651
462.233;  225.718;  842.800;  888.361
462.519;  350.490; -814.201; -464.639
462.806; 1030.523; -768.197; -497.645
463.093;  894.648; -445.191;  -66.656
463.380;  -19.285; -920.186; -824.664
463.666;   38.675; -259.197;  -18.646
463.953;  101.562; -406.195; -243.648
464.239;  190.712; -173.195;  -77.648
464.526;  368.698;  413.806;  743.350
464.813;  313.985; -565.190; -304.658
465.099;  331.779;  606.807;  607.348
465.386;  302.758;  903.807;  921.348
465.672;   -1.377; -694.197; -522.645
465.959;    5.853; -598.188; -520.662
466.245;    3.558; -468.193; -359.652
466.532;   77.760; -109.195;   63.352
466.818;   59.439; -357.186; -216.664
467.104;  -13.196; -488.182; -415.672
467.391;  -38.438; -628.189; -459.658
467.677;   15.818; -289.186;    9.335
467.964;  -15.832; -682.189; -471.660
468.250;   46.446; -331.186; -160.665
468.536;   86.988;   90.811;  180.341
468.822;  -34.143; -821.184; -574.668
469.109;  142.060;  351.827;  471.311
469.395;  172.367;  729.808;  787.346
469.681;  200.091;   46.811;  156.341
469.967; 1289.096; -699.188; -382.660
470.254; 2806.304; -494.188; -306.662
470.540; 1805.300; -601.196; -476.646
470.826;  252.916; -488.181; -397.675
471.112;  314.861;  288.816;  113.331
471.398;   74.441; -253.183;  -58.670
471.684;   36.844; -626.177; -447.680
471.970;  -11.331; -918.180; -981.675
472.256;   24.541; -521.192; -441.654
472.542;    0.546; -499.171; -434.691
472.828;    5.025; -743.182; -607.672
473.114;   21.465; -380.166; -283.700
473.400;    6.960; -504.175; -293.684
473.686;   33.746; -452.166; -400.701
473.972;   42.600; -230.174; -131.687
474.258;  -39.490; -925.173; -843.689
474.544;  233.336; -183.178;   -2.679
474.830;  336.662;  -65.175;   45.316
475.116;  520.836; -123.190; -196.658
475.401;  699.222; -558.180; -467.676
475.687;  203.921; -725.180; -718.676
475.973;  -17.017; -673.181; -770.673
476.259;  231.889;  736.825;  764.315
476.544;  380.902; -539.176; -437.682
476.830;  870.267; -398.172; -322.690
477.116;  783.101; -430.177; -336.682
477.401;  151.796;  346.820;  358.324
477.687;  -18.864; -289.175; -405.684
477.973;   42.812;   21.819;   28.326
478.258;  -19.409; -448.163; -348.706
478.544;   49.151;   21.815;   61.334
478.829;  -61.048; -818.171; -738.692
479.115;  -78.733; -749.172; -651.690
479.401;  -13.079; -444.174; -449.686
479.686;   43.420; -253.180;  -74.676
479.972;  -38.034; -886.178; -776.680
480.257;   31.591; -258.166;  -65.700
480.542;  -10.419; -614.170; -469.693
480.828;  223.309; 1288.824; 1392.317
481.113;  -31.468; -464.176; -426.683
481.399;  -16.785; -236.161; -202.711
481.684;  -51.409; -620.166; -462.700
481.969;   24.904; -158.159;  -73.713
482.255;  -13.309; -439.169; -285.695
482.540;   -7.384; -569.178; -441.680
482.825;    3.160; -395.187; -404.663
483.110;   89.320;  -85.169; -105.696
483.396;  214.900; -840.157; -652.718
483.681;  526.500;  543.826;  730.313
483.966;  170.948; -696.160; -700.712
484.251;  -17.676; -404.174; -310.687
484.536;    0.651; -356.165; -378.703
484.822;   11.377; -205.173; -218.687
485.107;  -32.387; -599.152; -502.726
485.392;  125.057;  662.836;  541.296
485.677;   74.554;  354.832;  163.302
485.962;  100.123;  160.843;  270.283
486.247;   93.774;  -14.162;   -8.707
486.532;   44.142; -178.166; -325.701
486.817;  165.560;  381.839;  431.291
487.102;  125.671; -453.154; -514.722
487.387;  702.002; -637.156; -652.718
487.672; 1257.712; -154.164;  -38.705
487.957;  784.442; -394.160; -286.711
488.241;  221.205; -290.150; -314.729
488.526;  794.865; -280.152; -148.726
488.811; 1273.218; -881.177; -818.680
489.096;  934.949; -666.154; -702.723
489.381;  521.086;    3.847;  162.275
489.666;  408.790; -428.161; -510.710
489.950;  184.477;  558.846;  627.277
490.235;  -31.975; -480.151; -458.728
490.520;  -55.586; -756.161; -723.710
490.804;  -61.846; -827.156; -736.719
491.089;    0.546; -469.149; -299.732
491.374;   42.561; -132.164;  -75.704
491.658;  -25.143; -817.147; -717.735
491.943;  157.194; -657.152; -609.727
492.227;  223.092; -178.155;  -38.721
492.512;   56.422; -294.157; -341.717
492.797;  -75.585; -713.149; -716.731
493.081;  -53.265; -588.147; -598.735
493.366;  -55.334; -751.161; -635.711
493.650;  216.588;  831.859;  917.254
493.935;   32.932; -648.147; -447.734
494.219;  -38.425; -778.142; -687.743
494.503;  -43.065; -585.150; -487.730
494.788;   50.064;   46.842;   74.285
495.072;  103.506;  184.850;  434.271
495.356;  172.174; -463.148; -343.733
495.641;  434.942; -812.146; -736.736
495.925;  427.909; -976.156; -903.719
496.209;   25.170; -599.149; -451.732
496.494;  -47.774; -763.142; -544.744
496.778;    8.272; -364.154; -360.722
497.062;  -68.516; -819.156; -627.719
497.346;  -37.156; -869.160; -640.711
497.631;  139.128;  580.852;  560.266
497.915;   58.152;  -64.145;  175.261
498.199;   45.050; -341.157; -277.718
498.483;   28.163; -562.152; -508.725
498.767;  196.433;  301.850;  300.271
499.051;  188.593; -126.149; -100.732
499.335;   29.766; -693.149; -739.731
499.619;  -41.311; -381.129; -423.767
499.903;   17.391; -272.155;  -65.721
500.187;   22.354; -588.153; -316.724
500.471;   17.818; -796.152; -595.727
500.755;   96.214;   62.839;  -96.710
501.039;   15.316; -270.155; -357.721
501.323;   72.965;  -21.141;  264.254
501.607;   19.892; -447.163; -503.706
501.891;   -3.248; -607.156; -512.718
502.174;  -30.862; -726.144; -585.741
502.458;   70.822;   89.849;  370.273
502.742;   28.489; -180.138; -191.751
503.026;  116.656; -412.147; -254.734
503.310;  182.928; -437.159; -375.713
503.593;  126.083; -464.147; -325.735
503.877;  116.629; -232.133; -156.760
504.161;  163.031;    2.847;  -50.724
504.444;  128.391; -841.158; -710.716
504.728;  492.885; -487.164; -522.704
505.012;  751.354; -257.150;  -76.729
505.295;  551.365; -417.161; -212.711
505.579;  562.158; -256.156; -496.719
505.862;  815.848; -555.145; -333.738
506.146;  797.405; -681.159; -758.714
506.429;  431.681;  568.841;  461.286
506.713;   63.202; -732.151; -667.728
506.996;  332.671;   90.846;  295.278
507.280;  365.630; -633.165; -474.703
507.563;  242.140; -469.155; -261.721
507.847;  105.254; -423.153; -112.724
508.130;  101.741; -665.161; -456.711
508.413;  135.237; -758.167; -577.700
508.697;  270.912; -151.167;   12.300
508.980;  149.031; -422.153; -312.724
509.263;   -0.364; -466.155; -450.720
509.547;   19.654; -124.150;   82.271
509.830;   44.868; -172.160;  140.289
510.113;   90.983;  128.844;  298.281
510.396;   32.962; -530.152; -300.725
510.680;  106.325; -818.145; -812.738
510.963;  497.325;  184.846;  180.277
511.246;  415.987; -493.150; -357.730
511.529;  248.930; -482.145;  -83.739
511.812;  422.026; -250.134;   10.241
512.095;  296.624; -740.151; -396.728
512.378;   85.637; -317.147; -245.736
512.661;   21.996; -703.137; -623.753
512.944;   30.653; -750.142; -637.744
513.227;   68.319; -170.137; -171.752
513.510;   15.138; -479.144; -671.741
513.793;   22.594; -485.140; -435.747
514.076;  137.860;  -43.127;  -39.771
514.359;  107.371; -294.149; -135.732
514.642;   85.955; -442.142; -567.744
514.925;  798.393;  581.860;  561.253
515.208; 1073.797; -498.134; -443.758
515.491;  700.336; -276.133; -182.761
515.773;  397.292; -410.143; -337.742
516.056; 2251.703;  249.864;  409.246
516.339; 2974.607; -754.136; -652.755
516.622; 1883.660; -518.150; -488.730
516.904; 1088.424;  882.857;  975.257
517.187;  474.317; -730.138; -523.752
517.470;  388.998; -568.143; -510.743
517.752;  468.910; -624.136; -470.756
518.035;  379.155; -708.139; -725.749
518.318;  403.407; -799.136; -744.755
518.600; 2653.214; -300.132; -325.762
518.883; 3642.555;  310.858;   88.256
519.165; 1742.935; -585.138; -426.751
519.448;  390.939;  -61.132;  -19.762
519.730;  181.893; -573.126; -415.773
520.013;  294.307;  588.867;  664.240
520.295;  710.227;  -94.134;  -15.759
520.578; 1523.227; -335.131; -305.764
520.860; 1770.814; -254.132;   56.238
521.143;  944.262; -763.135; -584.756
521.425;  479.206; -251.125; -279.775
521.707;  692.286; -622.127; -380.771
521.990; 1891.461; -199.127;  167.229
522.272; 2169.496; -116.140;   -4.748
522.554;  941.243; -237.143; -157.742
522.836;  319.100;  -24.134;   99.241
523.119;  191.430; -496.148; -189.734
523.401;  147.334; -448.130; -314.766
523.683;   93.822; -865.137; -693.753
523.965;  313.015;  408.862;  260.248
524.247;  281.977;   54.878;  170.220
524.529;  201.477; -451.134; -367.759
524.812;  370.686;   -3.130;  191.234
525.094;  927.965; -773.138; -631.751
525.376; 1457.065; -143.124;   78.223
525.658;  891.379; -441.136; -339.754
525.940;   41.999; -805.131; -671.764
526.222;   20.333; -188.136;  -88.755
526.504;  104.447; -190.131;   32.237
526.786;  138.705; -960.133; -647.760
527.068;  255.720; -124.123;  -67.778
527.349;   91.151; -865.137; -774.754
527.631;  126.814; -137.132;   22.238
527.913;  166.260; -664.127; -450.771
528.195;  189.774; -761.125; -639.774
528.477;  268.597;  -93.134;  -30.758
528.759;  151.561; -648.130; -522.766
529.040;   73.519; -569.123; -293.778
529.322;   61.351; -235.125;  -10.774
529.604;  123.938;  -47.130;   93.233
529.886;  110.292; -546.126; -302.773
530.167;  106.255;  232.870;  192.235
530.449;   42.686;    1.853;   63.265
530.731;   27.101; -572.122; -459.779
531.012;   71.397; -513.120; -216.784
531.294;   75.011; -118.116;  -43.792
531.575;  159.756;  290.875;  538.225
531.857;   59.167; -548.135; -266.757
532.138;   99.739; -113.141;   40.254
532.420;  167.538;  294.865;  403.244
532.701;  184.407; -722.133; -751.760
532.983;  315.610;  232.867;  182.239
533.264;  111.415; -243.126;  175.228
533.546;  -34.143; -491.136; -508.755
533.827;   39.779;  173.867;   -1.759
534.109;   25.092; -352.135;  -80.757
534.390;   76.468; -725.132; -582.762
534.671;  241.963; -270.135;  -82.756
534.953;  145.847; -751.123; -611.779
535.234;   22.546; -426.117; -255.789
535.515;  -78.420; -891.119; -735.785
535.796;  -25.244; -431.128; -193.770
536.078; -111.136;-1050.124; -904.777
536.359;    8.772;  -22.123;    3.221
536.640;   -9.150; -480.125; -197.774
536.921;  157.293;  225.871;  143.232
537.202;  387.537;  -87.138;  -16.751
537.483;  459.902;  251.869;  377.236
537.764;  185.530;   17.870;   98.235
538.045;  -47.429; -543.134; -371.758
538.326;  -38.480; -596.129; -447.768
538.607;   21.511; -686.127; -476.771
538.888;  178.063;   98.879;    5.218
539.169;  203.182; -704.122; -535.781
539.450;  355.467;  236.871;   16.233
539.731;  209.467; -361.121; -182.783
540.012;  140.672;  199.880;  412.216
540.293;   90.359;   82.876;  158.224
540.574;   -3.019; -895.113; -717.796
540.855;  441.890;  435.879;  377.218
541.136;  523.580;   47.878;  139.220
541.416;  281.561; -161.130; -220.766
541.697;  206.322; -274.131; -170.763
541.978; 1096.465; -270.135; -315.757
542.259; 1362.111; -211.127; -236.771
542.539;  649.605; -191.116; -186.790
542.820;  178.080;  461.875;  480.225
543.101;  117.202;  -52.145;  -77.738
543.381;   21.086; -638.127; -591.771
543.662;  269.284;  159.873; -254.771
543.942;  617.782; -751.127; -830.770
544.223; 1134.181;  193.878;  161.219
544.504;  729.364; -275.124; -182.777
544.784;  620.542; -592.126; -408.773
545.065; 1738.608;  104.884; -254.791
545.345; 2052.755;  227.881;   14.215
545.626; 1360.731;  -14.113; -108.796
545.906;  932.754;   77.869;   98.235
546.186;  383.672;   92.874;  -95.773
546.467;  205.617;   99.877;  -95.778
546.747;  336.179;  264.884;  327.210
547.027;  405.888;   91.876;  111.223
547.308;  344.731; -376.127; -530.770
547.588;  414.146;  299.871;  371.232
547.868;  204.230;  458.870;  588.235
548.149;  212.691;  609.885;  593.207
548.429;  133.959; -347.127; -299.771
548.709;  223.146; -645.120; -461.784
548.989;  507.390;   84.882;   88.213
549.269; 2276.738;   10.868;  139.239
549.550; 5156.046;  215.877;  117.222
549.830; 4656.249; -758.111; -556.799
550.110;  932.106; -468.110; -320.801
550.390;  878.126; -128.122;  -56.779
550.670; 1184.251; -868.114; -783.795
550.950;  852.290; -509.121; -471.782
551.230;  212.361;  549.879;  460.218
551.510;   -5.361; -381.121; -326.782
551.790;   50.764; -173.109; -127.803
552.070;  261.742;  940.877; 1181.223
552.350;  436.634; -492.119; -377.786
552.630;  643.709;   -2.121;   77.219
552.909;  387.934;  181.884;   73.209
553.189;  253.094;  -49.132;   33.237
553.469;  207.459; -703.119; -514.786
553.749;  216.013; -469.127; -357.772
554.029;  176.025;   33.883;  -24.790
554.308;  158.745; -154.115;  -37.794
554.588;   75.430; -196.128; -204.770
554.868;   66.366; -366.121;  -47.782
555.147;  159.517; -114.115;  -46.793
555.427;  646.711; -260.116; -250.792
555.707; 4174.615; -284.115; -200.793
555.986; 5051.377; -719.111; -538.800
556.266; 2698.753;   23.884;   72.210
556.546;  129.014; -888.121; -675.782
556.825;  289.524; -657.114; -556.794
557.105; 1932.503; -125.128;   17.230
557.384; 2235.908;  122.884;  187.209
557.664;  875.485; -717.116; -508.792
557.943;  142.415; -557.121; -411.782
558.222;  198.868; -345.118; -344.788
558.502;  302.718; -116.115;  -76.793
558.781;  529.039;  194.885;  499.208
559.061;  455.443; -232.118; -227.788
559.340;  313.447;  302.883;  353.211
559.619;  800.103;   93.884;  148.210
559.899; 1119.799; -239.117; -266.789
560.178; 1009.843; -778.115; -593.793
560.457; 3402.576; -623.117; -562.790
560.736; 4699.403; -472.111; -482.800
561.015; 3152.650; -500.128; -502.769
561.295;  408.084;  180.893;  215.193
561.574;  362.266;  119.885;  116.207
561.853;  516.843;  274.891;  303.197
562.132;  513.571;  -45.114;  182.206
562.411;  484.034;  396.879;  553.219
562.690;  150.439; -592.115; -458.792
562.969;  148.838;  472.888;  630.203
563.248;  509.132; 2966.878; 2487.219
563.527;  300.677; -290.111; -408.800
563.806;  415.209; -650.127; -521.771
564.085;  463.474; -297.105; -206.810
564.364;  262.152; -594.117; -405.790
564.643;  551.960; -276.121; -223.781
564.922; 2040.362;  221.890;  397.198
565.201; 2084.366; -640.109; -700.803
565.479;  886.237; -297.115; -219.792
565.758;  372.153; -810.128; -712.770
566.037;  520.042; -155.109; -100.803
566.316;  252.108; -286.116;  -28.791
566.595;   37.615;  -17.115;  -12.793
566.873;  114.529; -166.111;  -79.801
567.152;  -50.663; -490.113; -590.797
567.431;   16.804; -113.116;    6.210
567.709;    5.709; -344.107; -212.807
567.988;  283.724; -810.114; -769.794
568.266;  559.090; -160.115;  -68.793
568.545;  417.096; -644.100; -514.819
568.824;  633.137;  160.885;  356.208
569.102;  602.449; -351.114; -235.794
569.381;  241.536; -492.116; -407.792
569.659;  -49.141; -553.113; -553.796
569.938;   21.380; -743.122; -465.780
570.216;  124.594; -225.109; -225.804
570.494;  -29.273; -632.114; -572.795
570.773;   39.688;  202.879;  114.218
571.051;   20.194; -373.123; -357.778
571.330;   72.206; -221.113; -174.796
571.608;   41.364; -181.098; -173.823
571.886;  -75.228; -671.111; -581.799
572.164;  -62.134; -739.121; -621.782
572.443;  -48.747; -562.105; -512.811
572.721;  -48.474; -399.117; -289.790
572.999;   -9.030; -280.117; -168.788
573.277;   86.121;  379.894;  620.191
573.555;  300.273;   94.894;   37.190
573.834; 1463.819;  -86.117; -114.788
574.112; 1669.961;  880.893;  811.193
574.390;  525.203; -143.111;  -96.801
574.668;    2.438;  -91.112;  -61.797
574.946;   -7.252; -165.106; -187.810
575.224;   16.691;   71.891;  -16.803
575.502;  -35.094; -200.116; -204.791
575.780;  -85.186; -767.112; -829.798
576.058;  214.078; 1589.889; 1004.200
576.336;  -12.417; -210.110; -129.801
576.614;  -65.910; -511.112; -340.798
576.891;   71.595; -711.115; -823.794
577.169;  517.877; -158.108; -285.805
577.447;  605.686;  169.893;  202.193
577.725;  285.094;  629.888;  854.201
578.003;   14.992;  -71.112; -371.798
578.280;   87.611; -208.104; -242.812
578.558;   64.343; -450.115; -422.793
578.836;  134.252; -210.114; -145.795
579.114;   53.288; -630.112; -670.797
579.391;   63.896;   -6.117;  -18.789
579.669;  -78.905; -595.114; -704.794
579.947;  182.607; -326.107; -127.806
580.224;  334.107; -692.107; -524.806
580.502;  345.036;  127.893;   76.193
580.779;   42.352;  -42.117;   75.210
581.057;  -83.930; -584.109; -470.804
581.334;  -99.974; -726.102; -695.815
581.612;   35.524;   54.895;  511.190
581.889;  -26.510;  -83.101; -129.818
582.167;  -42.721; -298.099; -190.821
582.444; -106.816; -845.102; -814.817
582.721;   92.785;  657.899;  715.183
582.999;   69.826; -326.100; -167.821
583.276;  590.099; -812.123; -713.779
583.553;  785.155; -364.102; -294.816
583.831;  259.558; -607.104; -631.812
584.108;   67.550;  349.892;  174.195
584.385;   -2.349; -122.102;  -98.815
584.662;  -57.495; -651.111; -828.801
584.940;   31.954;  204.889;  204.199
585.217;  -17.392;  -73.113; -303.796
585.494;   24.413;   71.890;  118.198
585.771;  212.696; -250.109; -354.804
586.048;  522.783; -196.113;  -76.796
586.325;  353.057; -721.110; -773.801
586.602;   93.612;  230.896;  213.188
586.879;   -9.552; -499.100; -580.820
587.156;   54.500; -156.105; -331.810
587.433;  -34.393; -701.102; -667.817
587.710;   68.640;  152.888;  234.202
587.987;  307.180; -264.105; -236.811
588.264;  815.392;  315.888;  387.202
588.541; 1439.264;  -61.104;   26.187
588.818; 2804.898;   72.892;  171.196
589.095; 2422.585; -163.104; -174.812
589.371;  403.293; -459.109; -414.804
589.648;   25.386; -581.107; -437.807
589.925;   34.228; -517.114; -621.795
590.202;   28.090; -741.112; -607.798
590.478;  101.182; -166.105;  -73.811
590.755;  307.104; -241.108; -132.806
591.032; 2633.159; -741.110; -699.802
591.308; 3639.679; -732.094; -790.831
591.585; 1906.384; -573.110; -560.802
591.862;  158.534;-1056.102; -950.817
592.138;   64.026; -475.108; -474.805
592.415;  174.638; -486.104; -495.813
592.691; 1548.410;  460.896;  518.188
592.968; 1946.091; -208.098; -123.824
593.244;  932.379; -695.116; -595.790
593.521;   77.784; -105.102;  -42.817
593.797;  -14.123; -810.122; -720.780
594.074;  346.428; -611.096; -588.826
594.350;  672.289;  828.905;  729.172
594.626;  308.580; -303.111; -283.801
594.903;  127.210; -643.101; -645.817
595.179;  183.016;  243.896;  418.187
595.455;    9.037; -136.107; -150.807
595.731;    0.868;  -19.103;  -38.814
596.008;  -48.501; -464.111; -434.800
596.284;   36.450; -187.100; -242.820
596.560;   67.410; -501.093; -493.833
596.836;  204.402; -173.105;  -70.810
597.112;  354.052; -582.108; -437.805
597.388;  306.801;  -49.097;  -48.826
597.665;  117.011;  437.887;  530.203
597.941;  -65.186; -572.089; -658.839
598.217;    8.513; -323.110; -293.802
598.493;  279.897;   61.891; -204.804
598.769;  529.369; -175.100;  -50.819
599.045;  342.930; -490.108; -562.806
599.321;   56.224; -193.100; -261.820
599.597;  159.646; -355.109; -476.804
599.872;  510.689;  409.896;  429.187
600.148;  384.227;  -61.097; -172.826
600.424;  294.360;   91.893;  202.193
600.700;  263.012; -170.107; -280.807
600.976;  126.572; -442.097; -464.825
601.252;  267.193; -226.109; -272.803
601.527;  222.965; -833.104; -840.813
601.803;  162.757; -453.105; -404.812
602.079;  202.419; -124.100; -118.819
602.354;  609.695; -620.092; -531.835
602.630;  856.458; -140.113; -482.796
602.906; 2516.565; -910.101; -863.818
603.181; 7098.534; -627.119; -534.786
603.457; 6054.625;   98.903; -278.826
603.733;  879.567; -605.120; -626.783
604.008; 1050.374; -245.106; -164.810
604.284; 3204.186; -636.101; -580.817
604.559; 2752.369;   -3.112;  -42.799
604.835;  518.027; -163.105; -225.810
605.110;  441.179; -732.099; -892.821
605.385;  727.688;  224.907;  267.167
605.661;  695.167; -625.095; -729.829
605.936; 1251.130; -664.108; -737.806
606.211; 1060.725;  -17.103; -170.815
606.487;  205.997; -329.114; -376.794
606.762;   16.559; -791.119; -745.786
607.037;  -21.823; -501.105; -433.810
607.313;  -51.590; -589.096; -574.828
607.588;    0.048; -375.106; -137.810
607.863;   40.264;  -28.101; -143.818
608.138;  187.836;  513.890;  516.198
608.413;   39.108; -576.099; -592.822
608.688;   50.177; -203.108; -267.805
608.964;  231.718; -509.106; -218.809
609.239;  257.249; -107.105; -212.810
609.514;  275.007;  281.895;  240.188
609.789;  683.112; -187.104; -716.812
610.064;  909.134; -435.096; -609.827
610.339;  951.443; -855.109; -799.804
610.614; 1263.849; -131.100; -315.820
610.889;  717.782;  215.895;  107.188
611.163;   49.808; -407.104; -591.812
611.438;   73.899;   81.886; -167.794
611.713;    9.061; -467.101; -499.817
611.988;   55.138; -144.101; -328.818
612.263;  -10.224; -771.102; -717.815
612.538;  230.258;  385.887;  251.204
612.812;  208.851; -832.100; -911.820
613.087;  143.513; -358.098; -338.823
613.362;  -47.088; -497.107; -557.807
613.637;   31.471;  261.897;  138.186
613.911;   13.346; -256.092; -345.835
614.186;  137.911; -249.107; -292.807
614.460;  734.339; -842.081; -758.854
614.735;  845.913;  -55.087;  -17.843
615.010;  184.228;   43.912;  -82.841
615.284;  262.451;  360.892;  246.195
615.559;  380.944; -792.092; -955.835
615.833;  311.206;  -76.099;  -87.822
616.108;   -2.944; -225.090; -390.837
616.382;  150.964;  274.913;  402.156
616.656;  167.107; -241.090; -232.837
616.931;  539.107; -785.099; -700.822
617.205; 1150.166; -973.104; -979.813
617.480; 1021.678;  -91.125;    6.225
617.754;  169.451; -396.125; -128.774
618.028;    4.022; -369.129; -382.768
618.302;   69.475;   73.892;  -25.805
618.577;  -52.203; -371.103; -518.815
618.851;  -48.110; -399.109; -600.803
619.125;  -63.623; -335.134; -378.759
619.399;  -37.309; -244.104; -374.813
619.673;  -50.813; -330.115; -515.792
619.947;  -55.723; -333.114; -448.795
620.222;   -9.669; -198.110; -204.801
620.496;   -7.685;  -47.121;  -96.782
620.770;   15.007; -187.122;  -93.781
621.044;  224.375;  323.895;  346.190
621.318;  757.543; -653.120; -614.783
621.592;  710.566; -430.121; -409.783
621.866;  393.195; -476.112; -572.799
622.140;   36.881; -207.116; -356.791
622.413;   55.399;  138.889;  112.200
622.687;  -46.964; -746.101; -492.817
622.961;   15.375; -130.108; -143.805
623.235;  -69.975; -633.111; -661.800
623.509;  -98.143; -816.105; -848.811
623.783;   21.433;  -12.107;   48.193
624.056;  -15.931; -254.120; -280.783
624.330;   48.113;   63.888;   -3.797
624.604;   55.977; -271.116; -355.790
624.877;   78.835;  180.890;   26.198
625.151;   40.421; -249.114; -238.794
625.425;  -30.507; -150.103; -283.814
625.698;  -55.997; -367.119; -374.785
625.972; -109.737; -799.110; -765.802
626.245;   80.079;  685.884;  484.210
626.519;  -50.327; -426.120; -340.784
626.792;  -34.888; -192.107; -380.807
627.066;  -86.375; -485.122; -662.779
627.339; -103.891; -736.110; -663.802
627.613;   43.747;  351.880;  148.216
627.886;  -64.085;  187.891; -612.803
628.160;  -20.807;  312.880; -161.783
628.433;  -97.244; -695.125; -703.775
628.706;  -79.002; -517.120; -615.784
628.979;   24.988;  296.876;  117.223
629.253;  -86.467; -785.119; -833.786
629.526;  389.791; -334.126; -253.772
629.799;  366.970; -641.123; -479.778
630.072;  182.348; -497.128; -516.769
630.346;  -46.696;-1115.116;-1080.790
630.619;  507.088; -467.107; -545.808
630.892;  647.401;  709.889;  593.200
631.165;  364.716;  790.896;  679.187
631.438;  -69.533;-1092.112;-1055.798
631.711;   46.123;  453.877;  257.221
631.984;  -52.975; -523.117; -624.789
632.257;  -73.979; -636.117; -681.789
632.530;  -49.571; -412.119; -433.785
632.803;   22.769; -109.115;    7.207
633.076;  -66.184; -360.123; -422.777
633.349;    6.777;  173.872;  121.231
633.622;  -27.047; -187.119; -240.785
633.895; -131.331; -903.120; -823.783
634.167;  -66.632; -496.126; -525.773
634.440;  -15.914;  -19.116; -137.792
634.713;    0.182;  -22.119; -120.786
634.986;   75.842;  593.871;  453.233
635.258;  -78.733; -507.115; -597.793
635.531;  108.717;  742.882; -343.788
635.804;  -33.902; -303.117; -318.789
636.077; -106.268; -830.116; -852.791
636.349;   -0.134; -586.115; -474.793
636.622;  391.465; 1695.874; 1392.228
636.894;  245.198; -474.120; -909.784
637.167;  169.284; -836.127; -789.771
637.439;   35.855; -278.128; -213.770
637.712;  -59.133; -312.126; -293.772
637.984;  -81.643; -635.116; -707.791
638.257;  393.417;  515.877;  488.222
638.529;  588.732; -881.125; -924.776
638.802;  248.598; -508.128; -449.769
639.074; -114.819; -927.122; -952.781
639.346; -119.856; -942.135; -930.757
639.619;  -12.671;  -79.142; -319.744
639.891;  -14.750;  -83.122; -168.779
640.163;  -68.198; -689.122; -756.780
640.435;   23.979;  273.878;  103.220
640.708;   11.930;  -72.122; -132.780
640.980;  -24.318; -366.122; -362.781
641.252;  192.109;  -25.121;  -71.781
641.524; 1814.911;  580.879;  573.219
641.796; 1841.488;-1094.121; -907.782
642.068;  320.914; -191.121; -300.782
642.340;  -59.534; -486.121; -566.783
642.613;   41.193;  294.880;  323.217
642.885;  -91.155; -787.120; -878.783
643.157;  -47.528; -810.120; -658.784
643.428;   62.249;  170.880;  218.216
643.700;  -81.275; -498.120; -425.784
643.972;  -37.773;  -16.119; -133.785
644.244;  -98.021; -474.119; -559.785
644.516;  -51.044; -250.119; -114.786
644.788;   47.308;  662.881;  548.214
645.060;  -10.090;  -12.119; -124.786
645.332; -113.189; -525.118; -535.787
645.603;   35.913;  479.882;  342.213
645.875;  -88.410; -334.118; -369.787
646.147;  177.017; 1487.882; 1242.212
646.418;  -49.506; -931.117; -918.788
646.690;  164.046; -714.117; -715.789
646.962;   48.197; -413.117; -451.789
647.233;   -2.601;   15.883;   11.211
647.505; -107.549; -595.117; -475.790
647.776;   26.778;  328.884;  229.210
648.048;   -5.270; -248.116; -418.790
648.320;  -71.669; -752.116; -679.791
648.591; -161.067;-1055.116; -958.791
648.862;  -92.140; -505.116; -577.792
649.134;    8.687;  115.885;  198.208
649.405;  -39.061; -661.115; -618.792
649.677;  -61.434; -475.115; -598.793
649.948;   -9.708; -181.115; -296.793
650.219;   -4.481;  -37.115; -147.793
650.491;  -79.879; -431.114; -520.794
650.762; -130.777; -705.114; -731.794
651.033;  -86.825; -437.114; -424.795
651.304;  -90.048; -743.114; -728.795
651.576;  -59.947; -680.114; -645.795
651.847;  -43.870; -250.113; -140.796
652.118;  -29.043;  -32.113; -189.796
652.389; -114.166; -639.113; -722.796
652.660;  -37.439; -147.113;  -89.797
652.931; -149.212; -897.112; -871.797
653.202;  -89.036; -382.112; -541.798
653.473;  -57.734; -633.112; -533.798
653.744;  167.193; -595.112; -590.798
654.015;  137.695; -356.112; -303.799
654.286;  -70.953; -642.111; -663.799
654.557;  -49.377; -586.111; -521.799
654.828; -145.850;-1114.111;-1088.800
655.099;  -72.923; -404.111; -291.800
655.370; -114.271; -427.111; -543.801
655.641; -124.569; -656.110; -714.801
655.911; -112.917; -618.110; -638.801
656.182;   42.309;  437.890;  387.198
656.453;   80.686;  830.890;  746.198
656.724;  -70.537; -466.110; -426.802
656.994;  -89.360; -553.109; -568.803
657.265; -104.733; -862.109; -873.803
657.536;  -99.481; -500.109; -377.804
657.806; -114.555; -561.109; -593.804
658.077; -141.603; -866.109; -950.804
658.347;  -94.976; -523.108; -598.805
658.618; -120.524; -646.108; -694.805
658.888;  -26.372;  -41.108;  112.195
659.159;  -83.321; -432.108; -548.806
659.429;  -22.644; -292.108; -349.806
659.700;   11.708; -435.107; -390.807
659.970;    0.735; -370.107; -359.807
660.241;   30.237; -754.107; -921.807
660.511;  517.539; -147.107; -174.808
660.781;  105.265; -793.106; -748.808
661.052;  -50.858; -222.106; -381.808
661.322;  -33.531;   21.894;   -9.809
661.592;   15.446;  257.894;  148.191
661.862;  -77.427; -369.106; -382.810
662.133;  -99.350; -551.105; -502.810
662.403; -126.974; -770.105; -676.810
662.673;  -49.097; -256.105; -213.811
662.943; -112.745; -612.105; -551.811
663.213;   -8.443;  -85.105;  -81.811
663.483;  -74.066; -593.104; -568.812
663.753;  -55.114; -194.104; -152.812
664.023;  -21.438;   68.896;  -32.813
664.293;  -78.161; -319.104; -126.813
664.563; -107.834; -694.104; -648.813
664.833; -126.082; -743.103; -608.814
665.103; -139.155; -730.103; -793.814
665.373; -108.979; -766.103; -806.814
665.643;  -86.477; -863.103; -918.815
665.913;   36.700; -534.103; -714.815
666.182;  163.227; -685.102; -719.816
666.452;  288.979;  -22.102;  -89.816
666.722;  -21.319; -724.102; -784.816
666.992; -134.293; -948.102; -921.817
667.261;  -91.866; -824.102; -808.817
667.531;  190.336;  134.899;   45.183
667.801;  520.988; -440.101; -412.818
668.070;  246.440;  714.899;  697.182
668.340;  -98.758; -883.101; -840.819
668.609;   88.043;  588.900;  301.181
668.879;  -85.130; -490.100; -558.819
669.149;  -83.153; -539.100; -516.820
669.418; -108.601; -698.100; -726.820
669.688;  -30.849; -482.100; -666.820
669.957;   70.778; -423.099; -546.821
670.226;  -21.371; -268.099; -331.821
670.496; -104.694; -431.099; -635.822
670.765;  -82.717; -418.099; -501.822
671.034; -150.765; -872.099; -828.822
671.304;  -10.213;   55.902; -111.823
671.573; -154.612;-1085.098; -957.823
671.842;   85.890; -380.098; -294.823
672.112;   44.392; -692.098; -586.824
672.381;   -7.106; -239.098; -214.824
672.650; -133.379;-1005.097;-1021.825
672.919;  -94.177; -631.097; -507.825
673.188; -105.551; -681.097; -878.825
673.457; -168.349;-1101.097;-1143.826
673.726;  -94.022; -579.096; -646.826
673.995;  -42.745; -533.096; -479.826
674.265;  -25.493; -263.096; -333.827
674.534;    6.209; -183.096; -235.827
674.802;   27.935; -618.096; -703.828
675.071; 1103.612; -886.095; -801.828
675.340; 4135.364; -464.095; -339.828
675.609; 1363.241;  103.905;   82.171
675.878;   78.393; -949.095; -893.829
676.147;   28.044;  -26.095;   -8.829
676.416;   97.421; -210.094; -294.830
676.685;  759.773; 1000.906; -622.830
676.953;  124.975; -603.094; -452.831
677.222;  -32.598; -193.094; -273.831
677.491;  -42.271;  -24.094; -127.831
677.759;  -25.320;   11.907;  172.168
678.028;  -31.668; -279.093; -222.832
678.297;    8.284;   71.907;  197.168
678.565; -149.489; -898.093; -944.833
678.834;  -51.837; -311.093; -268.833
679.102;  -85.210; -411.092; -391.834
679.371; -153.384; -898.092; -727.834
679.639; -134.607; -797.092; -786.834
679.908; -125.705; -794.092; -724.835
680.176; -156.053; -895.091; -941.835
680.445;  -75.926; -346.091; -352.835
680.713;  -20.024;  -58.091;  -23.836
680.982;  -91.698; -523.091; -525.836
681.250;  -93.246; -578.091; -507.837
681.518; -108.044; -534.090; -751.837
681.787;  -17.467; -204.090; -167.837
682.055;  -60.665; -490.090; -422.838
682.323; -149.364; -993.090; -992.838
682.591;   38.288; -216.090; -538.838
682.859;  101.440;    9.911;  -35.839
683.128;   15.592;  232.911;  497.161
683.396; -163.581;-1102.089;-1122.840
683.664;  -47.679; -241.089;   21.160
683.932;    3.747;  144.911;  -76.840
684.200;  -89.476; -576.088; -320.841
684.468;  -27.799;  -73.088; -124.841
684.736;  -31.997; -214.088; -175.841
685.004; -121.220;-1024.088; -982.842
685.272;  -51.518; -880.088; -774.842
685.540;  -61.492; -499.087; -557.843
685.808;  -87.515; -651.087; -682.843
686.076; -107.938; -894.087; -969.843
686.343;  -54.436; -601.087; -815.844
686.611;   42.816; -195.087; -224.844
686.879;  505.492; -530.086; -553.844
687.147; 3511.319; -483.086; -480.845
687.414;  954.821;  -12.086; -169.845
687.682;   21.623; -658.086; -757.846
687.950;  320.275;  259.915;  263.154
688.217;   23.377; -792.085; -760.846
688.485;  -18.847; -632.085; -636.847
688.753;  556.805;  -11.085; -102.847
689.020;  187.457; -820.085; -851.847
689.288;  -91.716; -853.084; -787.848
689.555;  -40.264; -195.084; -148.848
689.823;  -54.387; -241.084; -345.849
690.090;  -87.336; -546.084; -651.849
690.358; -148.109; -877.084; -897.849
690.625;   -2.782;  120.917;   45.150
690.892;  -85.280; -403.083; -369.850
691.160;  -10.803;   72.917;  -35.850
691.427;    3.174;  141.917;  130.149
691.694; -136.625; -855.083; -929.851
691.962; -141.548;-1177.082;-1060.852
692.229;    2.479;  127.918;   56.148
692.496;   91.306;  130.918;  -49.852
692.763;   14.308; -164.082; -201.853
693.031;  -62.666; -739.082; -716.853
693.298;  -36.364; -509.081; -368.853
693.565;  336.913; -155.081; -163.854
693.832; 1362.590;   -5.081;   -9.854
694.099;  164.292; -643.081; -642.855
694.366;  -45.881; -882.081; -896.855
694.633;  -67.430; -920.080; -633.855
694.900;  759.222; 4367.920; -114.856
695.167;  423.824; -214.080; -380.856
695.434;  101.176; -646.080; -623.856
695.701;  184.003;  121.921;  -61.857
695.968;  493.280; -365.079; -361.857
696.234; 1016.556; -415.079; -646.858
696.501;10163.108; -776.079; -614.858
696.768; 5059.660; -554.079; -617.858
697.035;  307.662; -632.078; -667.859
697.302;   17.564; -448.078; -552.859
697.568;    4.616; -458.078; -497.859
697.835;  -41.633; -683.078; -624.860
698.102;  -29.081; -498.078; -407.860
698.368;   80.996;  384.923;  396.139
698.635;  -42.677;  -47.077; -424.861
698.901;  -16.875; -240.077; -348.861
699.168;   88.651; -534.077; -456.862
699.435;   65.778;  -72.077;  -13.862
699.701; -109.720; -868.076; -764.862
699.968;    2.882;  144.924; -441.863
700.234; -114.166; -783.076; -822.863
700.500;  -52.989; -448.076; -539.864
700.767;    6.912;   -1.075;   26.136
701.033; -132.561;-1015.075; -963.864
701.299;  -69.859; -450.075; -483.865
701.566;  120.768;  950.925;  763.135
701.832;   20.945;  -31.075;  -76.865
702.098;  -91.778;-1054.074;-1034.866
702.365;  -87.052;-1098.074;-1030.866
702.631;  -19.525;-1038.074;-1063.867
702.897; 1412.002; -765.074; -676.867
703.163; 2271.404;  348.926;  254.133
703.429;  167.506; -256.073; -273.868
703.695;  -15.793; -796.073; -792.868
703.961;   30.809; -214.073; -210.868
704.227;  -65.064; -630.073; -725.869
704.493;  124.763;  613.927;  510.131
704.759;  -29.135; -565.072; -540.870
705.025;   23.917; -203.072; -194.870
705.291;  -23.232; -666.072; -562.870
705.557;  189.220;  719.928;   34.129
705.823;   20.097; -742.072; -694.871
706.089;  114.924; -307.071; -326.871
706.355;  355.451; -315.071; -244.872
706.620; 5354.403; -776.071; -729.872
706.886; 7463.229; -309.071; -362.873
707.152;  716.606; -818.070; -973.873
707.418;  -23.517;-1153.070;-1186.873
707.683;   -8.315; -550.070; -530.874
707.949;  -44.738; -547.070; -578.874
708.215;    4.714; -129.070; -207.874
708.480;  -22.585; -520.069; -420.875
708.746;   97.917;   68.931;   28.125
709.011;  -63.556; -578.069; -612.876
709.277;  -87.079; -538.069; -543.876
709.542;  -46.152; -428.069; -387.876
709.808;   -8.801;  -59.068;   89.123
710.073;  -95.424; -577.068; -695.877
710.339;  -26.797; -242.068; -228.877
710.604;   88.655; -780.068; -845.878
710.869;  316.682; -277.068; -366.878
711.135;  -84.641; -715.067; -628.879
711.400;  -93.940; -507.067; -608.879
711.665;  -54.363; -404.067; -479.879
711.931; -105.186; -661.067; -677.880
712.196; -117.359; -876.067; -954.880
712.461;  110.868; -402.066; -490.880
712.726;  142.870; -727.066; -771.881
712.991;  -92.379; -647.066; -664.881
713.256;  -59.252; -350.066; -332.882
713.521;  -52.875; -417.065; -381.882
713.787;  -47.723; -454.065; -472.882
714.052;  -26.996; -214.065; -400.883
714.317;  -89.944;-1045.065; -981.883
714.581;  989.582; -374.065; -268.883
714.846; 1319.959; -822.064; -888.884
715.111;  120.286;  261.936;  257.116
715.376;  -33.487;  -86.064; -223.885
715.641;  -24.310; -365.064; -367.885
715.906;  295.241;   15.936; -551.885
716.171;  143.193;  221.937;  209.114
716.436;   44.595;  -78.063; -104.886
716.700; -114.153; -818.063; -692.886
716.965; -126.351; -794.063; -807.887
717.230;  -79.799; -339.063; -392.887
717.494;  -24.248;  -40.062; -134.888
717.759;  -90.296; -784.062; -640.888
718.024;    6.981;  269.938;  250.112
718.288;   65.433;  685.938;  395.111
718.553; -127.890; -803.062; -977.889
718.817; -141.463; -883.061; -899.889
719.082;  -33.562; -115.061; -125.890
719.346; -152.235;-1000.061; -947.890
719.611;  -58.983; -300.061; -255.891
719.875; -111.331; -568.060; -537.891
720.140;  -61.654; -453.060; -603.891
720.404;   46.072; -136.060; -249.892
720.668;  903.874; -475.060; -411.892
720.933;  336.201;  146.940;  137.108
721.197;  -94.847; -667.059; -600.893
721.461; -129.695; -851.059; -826.893
721.725;  -15.718;  -21.059; -250.894
721.990;  -66.842; -284.059; -204.894
722.254;  -26.615;  -26.059; -108.894
722.518;  -74.613; -286.058; -442.895
722.782;  -92.711; -743.058; -594.895
723.046;  119.341;  614.942;  570.105
723.310;   36.343;  374.942;  210.104
723.574; -100.856; -654.058; -614.896
723.838;  -99.679; -576.057; -642.897
724.102;  -43.327; -226.057; -239.897
724.366; -145.000;-1032.057; -978.897
724.630; -117.748; -749.057; -571.898
724.894;  -83.546; -722.057; -514.898
725.158;  -20.595;   38.944; -295.898
725.422;  -65.468; -394.056; -327.899
725.685;  -61.266; -441.056; -349.899
725.949;  -79.014; -566.056; -519.900
726.213;  -76.037; -732.056; -811.900
726.477;  192.214;-1020.055; -933.900
726.740;  141.466; -274.055; -104.901
727.004;  342.143; -384.055; -510.901
727.268; 3281.895; -442.055; -400.901
727.531;  854.097; -961.055; -775.902
727.795;  -46.826; -713.054; -673.902
728.059;  -60.700; -552.054; -557.903
728.322;  -89.923; -841.054; -669.903
728.586;   34.954; -692.054; -701.903
728.849;  -85.269; -695.053; -756.904
729.112; -108.917; -812.053; -912.904
729.376; -134.115; -959.053; -905.904
729.639;  -74.389; -536.053; -536.905
729.903; -111.087; -733.053; -699.905
730.166;  -49.910; -437.052; -399.906
730.429;  -20.333; -317.052; -468.906
730.693;  -76.081; -355.052; -894.906
730.956;  211.045;  810.948;  651.093
731.219;  719.522; -310.052; -103.907
731.482;  120.474;-1003.051; -894.907
731.745;  103.226; -794.051; -935.908
732.009;   23.378;  -30.051;   50.092
732.272;  -97.520; -904.051; -771.909
732.535;  -54.419; -300.051; -310.909
732.798; -148.017;-1083.050;-1166.909
733.061;  -60.115; -430.050; -456.910
733.324;   -1.363;   31.950; -180.910
733.587;   64.789;  290.950;  365.090
733.850;  -75.784; -973.049;-1050.911
734.113;   20.992;   33.951;   32.089
734.376;   -1.806; -328.049; -447.912
734.639;  209.896; 1188.951; 1011.088
734.901;   75.273; -180.049; -402.912
735.164;  536.500; -883.048; -837.913
735.427; 1335.252; -166.048; -355.913
735.690;  113.403; -205.048; -234.913
735.952;  -34.020; -923.048; -925.914
736.215;  -33.968;-1113.048;-1009.914
736.478;   46.684; -771.047; -774.915
736.740;  220.136;   33.953;  129.085
737.003;  735.887; -658.047; -672.915
737.266; 4229.839;  -94.047;   46.084
737.528;  439.016; -682.047; -660.916
737.791;  315.193; -316.046; -327.916
738.053;  807.445;  465.954;  649.083
738.316;10863.747; -162.046; -136.917
738.578; 7320.098; -770.046; -736.918
738.841;  437.750; -382.046; -446.918
739.103;  187.652; -875.045; -777.918
739.365;  526.854;   79.955;  -69.919
739.628;  -12.269; -884.045; -805.919
739.890;  -39.392; -758.045; -710.919
740.152;  -57.291; -692.044; -754.920
740.414;  -21.514; -408.044; -359.920
740.677;  -47.512; -785.044; -634.921
740.939;  -58.285; -587.044; -487.921
741.201;  282.567; -432.044; -572.921
741.463;   38.644; -689.043; -745.922
741.725;   12.645;  -21.043; -199.922
741.987;   58.547;  220.957;  116.078
742.249;    5.349; -751.043; -859.923
742.511;  242.276; -703.043; -794.923
742.773;   -8.372; -546.042; -546.924
743.035;  146.429;  796.958;  533.076
743.297;  -44.794; -963.042;-1013.924
743.559;  748.883; -278.042; -262.925
743.821;   52.035; -735.042; -744.925
744.083;    9.412;  -44.041; -149.925
744.345;  -89.211; -869.041; -892.926
744.607;   37.190;   75.959;  122.074
744.868;  -50.458; -490.041; -554.927
745.130; -104.606; -994.041;-1008.927
745.392;   41.071;   -1.040;  -44.927
745.653;   -6.402; -411.040; -378.928
745.915;  163.850;  896.960;  631.072
746.177;   60.301;   35.960;  -43.928
746.438;   -2.522; -428.040; -543.929
746.700;  -37.795; -947.039; -988.929
746.961;    6.632; -659.039; -740.930
747.223;  127.109; -190.039;  -74.930
747.484;   86.285; -391.039; -471.930
747.746;  158.037;  -23.038; -106.931
748.007;   89.764; -647.038; -689.931
748.269;  311.941; -468.038; -440.931
748.530;  498.393; -852.038; -638.932
748.791;  255.845; -354.038; -420.932
749.053;  459.496;  286.963;  163.067
749.314;  464.923; -236.037; -169.933
749.575;  536.675; -945.037; -905.933
749.836;  871.127; -217.037;   86.066
750.098; 2621.079;  -60.037;  -21.934
750.359;37937.931;  414.964;  555.066
750.620; 9188.007; -121.036; -220.935
750.881; 1061.384; -585.036; -513.935
751.142; 1403.311; -950.036; -938.936
751.403;17179.138; -789.036; -705.936
751.664; 7176.640;-1034.035; -999.936
751.925;  499.467; -175.035; -262.937
752.186;  281.918; -298.035; -278.937
752.447;  150.595; -590.035; -445.937
752.708;   46.772; -532.035; -648.938
752.969;    6.874; -566.034; -576.938
753.230;  -15.274; -777.034; -672.939
753.491;   -5.048; -650.034; -631.939
753.751;   66.104;  109.966;   19.061
754.012;   89.756;  258.967;  181.060
754.273;   65.858; -174.033;  -71.940
754.534;    4.085; -487.033; -580.940
754.794;  -96.588; -926.033; -911.941
755.055;  131.038; 1051.967;  881.059
755.316;  -35.560; -700.032; -566.942
755.576;  -21.308; -606.032; -576.942
755.837;  -49.931; -527.032; -695.942
756.097;  -41.779; -530.032; -564.943
756.358;  -73.202; -725.032; -770.943
756.618;  -44.676; -705.031; -641.943
756.879;   17.101; -254.031; -349.944
757.139; -124.347;-1098.031;-1116.944
757.400;  -58.370; -538.031; -553.945
757.660;   -6.268; -365.031; -401.945
757.920;   20.759; -266.030; -228.945
758.181;  -18.865; -468.030; -351.946
758.441;  -99.013; -870.030; -809.946
758.701;  -44.111; -308.030; -215.946
758.961;   -9.484; -220.030; -278.947
759.222;  -46.582; -574.029; -502.947
759.482;  -80.131; -683.029; -723.948
759.742;  -87.529; -706.029; -547.948
760.002;   26.698;  -83.029; -143.948
760.262;   10.375;   50.972;  182.051
760.522;  -37.148; -498.028; -574.949
760.782;  -66.321; -738.028; -612.949
761.042;  -30.045; -618.028; -573.950
761.302;   37.932;   55.972;  -18.950
761.562;   58.184; -164.027; -154.951
761.822;   86.336; -710.027; -551.951
762.082;  -40.937;-1104.027;-1093.951
762.342;   50.515; -328.027; -403.952
762.601;   82.441; -567.027; -506.952
762.861;  362.818; -281.026; -207.952
763.121;  403.870; -406.026; -411.953
763.381; 7559.747; -499.026; -485.953
763.640; 7929.874; -139.026; -307.954
763.900;  349.525; -242.026; -203.954
764.160;   83.677; -458.025; -491.954
764.419;  -26.296; -726.025; -782.955
764.679;  -82.794; -795.025; -726.955
764.939;  -19.942; -124.025; -210.955
765.198;  -88.540; -608.025; -563.956
765.458;  -86.564; -710.024; -612.956
765.717;  -93.887; -454.024; -590.957
765.976;  -69.860; -428.024; -411.957
766.236;  -78.283; -475.024; -610.957
766.495;    9.219;  260.977;   73.042
766.755;  -89.979;-1090.023; -987.958
767.014;   -1.978; -594.023; -665.958
767.273;  -47.501; -373.023; -397.959
767.533;  -41.124; -228.023; -307.959
767.792;  -32.722; -151.022; -188.960
768.051;  -74.870; -228.022; -276.960
768.310;  -98.893; -546.022; -650.960
768.569;  -16.892; -161.022;    4.039
768.828;  -31.290; -285.022; -363.961
769.088; -127.638;-1050.021; -942.961
769.347;  -92.786; -755.021; -599.962
769.606;  -97.434; -876.021; -857.962
769.865; -122.658;-1016.021;-1033.963
770.124;   -7.256; -411.021; -336.963
770.383;  -44.354; -778.020; -910.963
770.641;  -10.952; -398.020; -400.964
770.900;  -73.025; -953.020; -846.964
771.159;  -50.848; -851.020; -951.964
771.418;  -18.422; -917.020; -779.965
771.677;  106.455; -224.019; -293.965
771.936;  136.207; -794.019; -865.966
772.194; 2216.334; -465.019; -437.966
772.453;10599.461; -213.019; -391.966
772.712;  730.738;  416.982;  329.033
772.970;  125.114;   32.982;   63.033
773.229;   78.841;  -22.018;  102.033
773.488;  -83.807; -814.018; -770.968
773.746;   45.070;  296.982;  335.032
774.005;   11.572;  190.983;  -22.969
774.263;    3.073;  243.983;  177.031
774.522;  -87.325; -422.017; -548.969
774.780;  -89.048; -484.017; -417.970
775.039;  -82.646; -551.017; -531.970
775.297;  -27.644; -135.016; -351.970
775.555; -101.367; -489.016; -612.971
775.814; -114.766; -618.016; -570.971
776.072; -125.664; -749.016; -740.971
776.330; -111.087; -630.016; -520.972
776.589; -121.310; -703.015; -721.972
776.847; -132.383; -645.015; -624.973
777.105; -172.056;-1016.015;-1032.973
777.363;  -89.755; -459.015; -454.973
777.621; -132.678; -660.015; -717.974
777.879;  -28.876;  -42.014;   32.026
778.138; -101.324; -554.014; -717.974
778.396; -112.397; -585.014; -526.975
778.654; -156.895;-1015.014; -970.975
778.912;  -64.844; -269.014; -371.976
779.170; -132.917; -880.013; -803.976
779.427; -146.365; -922.013; -897.976
779.685; -134.138; -880.013; -832.977
779.943;  -84.836; -654.013; -593.977
780.201; -157.060; -964.012; -883.978
780.459; -113.483; -651.012; -610.978
780.717;  -79.581; -440.012; -390.978
780.974; -107.529; -449.012; -490.979
781.232;  -71.477; -358.012; -338.979
781.490;  -83.025; -551.011; -472.979
781.747; -105.274; -555.011; -476.980
782.005;   15.578;  462.989;  254.020
782.263; -160.795; -542.011;-1004.981
782.520;  -97.318; -326.011; -501.981
782.778; -162.966;-1013.010;-1051.981
783.035; -163.739; -962.010; -938.982
783.293;  -65.188; -248.010; -206.982
783.550;  -66.311; -134.010; -198.982
783.808; -127.259; -764.010; -776.983
784.065; -159.357; -745.009; -874.983
784.322;  -48.255;   25.991;  -86.984
784.580; -153.853; -915.009; -771.984
784.837;  -90.402; -392.009; -466.984
785.094; -154.300; -783.009; -762.985
785.352;  -69.923; -304.008; -404.985
785.609; -103.446; -934.008; -839.985
785.866;  -89.719; -345.008; -401.986
786.123;  -67.668; -639.008; -583.986
786.380; -105.666; -665.008; -604.987
786.637;  -40.339; -225.007; -380.987
786.895;  -10.162; -456.007; -543.987
787.152;  -50.060; -135.007; -267.988
787.409;  -41.258; -123.007; -225.988
787.666;  -91.057; -299.006; -378.988
787.923; -122.680; -616.006; -695.989
788.179;  -92.003; -551.006; -584.989
788.436; -113.151; -585.006; -585.990
788.693;  -32.499;  -92.006;  -87.990
788.950;  165.678; -125.005; -112.990
789.207;  217.504; -381.005; -372.991
789.464;  -50.919; -161.005; -301.991
789.720;   -8.617;  150.995;  110.009
789.977; -163.740;-1003.005; -671.992
790.234;  -29.638;   44.996;  -66.992
790.490; -158.887; -884.004;-1031.993
790.747;  -29.485;  -85.004;   22.007
791.004;  -28.858; -426.004; -348.993
791.260;  -80.581; -430.004; -560.994
791.517; -105.204; -843.003; -788.994
791.773;  -51.977; -379.003; -342.994
792.030; -112.201; -596.003; -660.995
792.286; -108.349; -686.003; -636.995
792.543;  -27.572;  -74.002; -159.995
792.799;  -61.920; -584.002; -382.996
793.055; -163.393;-1179.002;-1210.996
793.312;  -92.316; -827.002; -816.997
793.568;  -59.740; -746.002; -599.997
793.824;   12.587; -226.001; -284.997
794.081;   42.389; -447.001; -508.998
794.337;   54.016; -664.001; -561.998
794.593; 1400.818; -319.001; -271.999
794.849; 6535.495; -746.001; -772.999
795.105;  316.721; -270.000; -261.999
795.361;    7.548; -490.000; -457.000
795.617;  -56.250; -875.000; -945.000
795.873;  -60.825; -360.000; -407.000
796.129;  -39.675; -368.000; -306.000
796.385;  -35.150; -124.000; -156.000
796.641;   71.875;  412.000;  550.000
796.897;  -86.050; -666.000; -635.000
797.153;   55.625;  453.000;  357.000
797.409; -115.975; -785.000; -868.000
797.665;  -94.175; -625.000; -732.000
797.921;  -76.850; -775.000; -762.000
798.176;  -67.450; -744.000; -747.000
798.432;  -64.925; -824.000; -596.000
798.688;  -82.200;-1174.000;-1078.000
798.943;   52.650; -165.000; -147.000
799.199;   -8.725;-1005.000; -959.000
799.455;  224.375;  369.000;  316.000
799.710;  111.750; -813.000; -380.000
799.966;  278.200; -162.000; -160.000
800.221;  470.825; -638.000; -721.000
800.477;10664.500; -743.000; -710.000
800.732; 8831.000; -773.000; -800.000
800.988;  595.675;  205.000;  -19.000
801.243; 1753.100; -454.000; -344.000
801.498; 7075.600; -814.000; -739.000
801.754;  400.225; -289.000; -163.000
802.009;   76.500; -257.000; -335.000
802.264;  -46.900; -967.000;-1033.000
802.520;   17.225;  222.000;   -3.000
802.775;  -51.175; -524.000; -359.000
803.030;   39.550;  395.000;  356.000
803.285; -120.575; -840.000; -903.000
803.540;  -49.625; -686.000; -699.000
803.795;  -50.125; -648.000; -583.000
804.051;  -39.350; -279.000; -346.000
804.306;   28.250;  168.000;  128.000
804.561;  162.350;  451.000;  362.000
804.816;  126.750;  714.000;  861.000
805.071;    4.275; -185.000; -280.000
805.325;  239.150; -257.000; -427.000
805.580; -109.425; -841.000; -877.000
805.835;   -3.850; -204.000; -297.000
806.090;  -84.650; -760.000; -676.000
806.345;   -4.200; -344.000; -264.000
806.600;  -44.250; -549.000; -632.000
806.854;  -29.450; -408.000; -538.000
807.109;  -27.100; -493.000; -577.000
807.364;   -3.400; -407.000; -328.000
807.618;   -8.900; -415.000; -381.000
807.873;   48.750; -470.000; -494.000
808.128;   85.400; -257.000; -518.000
808.382;  110.275; -224.000; -332.000
808.637;   68.950; -440.000; -511.000
808.891;  175.200; -257.000; -180.000
809.146;   92.550; -902.000; -794.000
809.400;  279.825; -848.000; -923.000
809.654;  323.675; -779.000; -551.000
809.909;  485.125; -841.000; -927.000
810.163; 7232.975; -813.000; -651.000
810.418;17498.350; -940.000; -861.000
810.672; 1029.375; -685.000; -690.000
810.926;  724.100; -993.000; -973.000
811.180; 1391.825; -439.000; -372.000
811.434;31449.625;  240.000;  135.000
811.689;11809.200; -231.000; -365.000
811.943;  597.675; -936.000; -953.000
812.197;  291.250; -893.000; -671.000
812.451;  107.450; -379.000; -514.000
812.705;  -30.650; -809.000; -619.000
812.959;    3.850; -263.000; -388.000
813.213;  -17.100; -283.000; -209.000
813.467;   71.600;  470.000;  253.000
813.721; -113.400; -764.000; -792.000
813.975; -126.225; -826.000; -877.000
814.229;   43.150;  430.000;  353.000
814.482;  -68.300; -517.000; -566.000
814.736; -118.375; -766.000; -744.000
814.990; -120.475; -779.000; -872.000
815.244;  -55.825; -228.000; -285.000
815.497;  -97.125; -636.000; -601.000
815.751;  -31.800; -141.000;   82.000
816.005;  -92.325; -470.000; -586.000
816.258;  -64.200; -510.000; -363.000
816.512; -114.875; -693.000; -610.000
816.766;   -6.375;  121.000;  157.000
817.019;   23.100;  148.000;  149.000
817.273; -130.950;-1000.000; -802.000
817.526;  -46.450; -206.000; -173.000
817.779;  -37.675;-1049.000; -960.000
818.033;  -65.250; -693.000; -807.000
818.286; -139.025; -725.000; -792.000
818.540;  -94.100; -403.000; -403.000
818.793;  -84.950; -402.000; -489.000
819.046; -110.250; -582.000; -520.000
819.299;  -49.400; -157.000; -166.000
819.553; -107.425; -552.000; -592.000
819.806; -173.300;-1016.000; -838.000
820.059;  -68.200; -334.000; -354.000
820.312;   -9.700;  152.000;  185.000
820.565;   -6.675;  110.000;  -27.000
820.818;  -48.275;  -59.000; -173.000
821.071; -165.400;-1041.000; -957.000
821.324; -116.675; -536.000; -540.000
821.577; -115.100; -457.000; -483.000
821.830;  -74.275; -270.000; -172.000
822.083; -142.025; -733.000; -288.000
822.336;  -58.000; -261.000; -167.000
822.589; -144.100; -805.000; -688.000
822.842; -151.625; -875.000; -770.000
823.094; -183.925;-1076.000;-1114.000
823.347; -141.475; -925.000; -729.000
823.600;   16.650;  402.000;  187.000
823.853;  -73.875; -311.000; -267.000
824.105;  -73.375; -331.000; -575.000
824.358; -123.000; -617.000; -716.000
824.611;   19.475;  234.000;   40.000
824.863;  -62.850; -612.000; -591.000
825.116;   35.325;  -33.000;   27.000
825.368;   66.000; -366.000; -372.000
825.621;  159.150; -186.000; -240.000
825.873;   88.725; -704.000; -737.000
826.126;  592.925; -669.000; -641.000
826.378;11780.525; -389.000; -505.000
826.630; 2669.450; -890.000; -898.000
826.883;   35.600; -754.000; -693.000
827.135;   46.725; -279.000; -270.000
827.387; -110.425; -893.000; -839.000
827.639;  -23.300;  -86.000;   32.000
827.892; -134.450; -742.000; -582.000
828.144; -146.675; -848.000; -804.000
828.396;  -45.050;  104.000;  -80.000
828.648;  -96.475; -440.000; -333.000
828.900; -155.125; -702.000; -795.000
829.152; -118.475; -684.000; -683.000
829.404;  -62.300; -215.000; -267.000
829.656;   -4.950;  321.000;  214.000
829.908;  -12.200;  393.000;  229.000
830.160; -161.450;-1064.000;-1047.000
830.412; -104.375; -481.000; -430.000
830.664; -122.725; -557.000; -665.000
830.916;  -65.925; -268.000; -206.000
831.167; -191.550;-1073.000; -951.000
831.419; -121.750; -623.000; -566.000
831.671; -147.575; -764.000; -809.000
831.923;  -86.525; -311.000; -447.000
832.174;  -83.925; -273.000; -331.000
832.426; -121.125; -493.000; -582.000
832.678; -191.300;-1043.000;-1091.000
832.929; -167.125; -947.000; -935.000
833.181;  -66.050; -575.000; -677.000
833.432;  -63.525;  -59.000; -186.000
833.684;  -32.700;  112.000;  -27.000
833.935; -114.350; -610.000; -566.000
834.187; -136.875; -829.000; -823.000
834.438;  -50.750;  -58.000;  -25.000
834.689;  -51.975; -255.000; -123.000
834.941;  -62.125; -343.000; -244.000
835.192; -113.725; -590.000; -533.000
835.443; -114.875; -419.000; -506.000
835.695;  -14.200;  138.000;  -16.000
835.946;  -96.575; -608.000; -378.000
836.197; -102.075; -599.000; -622.000
836.448; -101.375; -528.000; -395.000
836.699;  -50.475; -253.000; -341.000
836.950;    3.225;   72.000;    7.000
837.201; -145.150;-1003.000; -987.000
837.452;  -59.575; -356.000; -170.000
837.703; -115.425; -791.000; -737.000
837.954;  -41.050; -205.000; -365.000
838.205;  -82.075;-1029.000;-1008.000
838.456;  181.550; -196.000; -282.000
838.707;    6.425; -423.000; -519.000
838.958;   -2.025; -634.000; -647.000
839.209;  289.075;   18.000;   40.000
839.460;  105.050; -439.000; -201.000
839.710;  175.000; -135.000; -297.000
839.961;  419.800;  730.000;  612.000
840.212;  361.425; -382.000; -497.000
840.462; 1194.050; -328.000; -277.000
840.713;18481.975; -571.000; -536.000
840.964; 6936.950;  -62.000; -143.000
841.214;  497.325; -384.000; -624.000
841.465;  590.000; -214.000; -141.000
841.715;  526.800; -417.000; -380.000
841.966;  693.625; -746.000; -685.000
842.216;10102.500; -330.000; -431.000
842.466;36100.600; -169.000; -313.000
842.717; 1842.325; -964.000; -952.000
842.967;  329.750; -635.000; -641.000
843.217;  275.450;   20.000;   28.000
843.468;   80.900; -104.000; -132.000
843.718;  -25.700; -718.000; -726.000
843.968; -107.725; -837.000; -765.000
844.218;   18.525; -315.000; -262.000
844.469;  -41.350; -577.000; -561.000
844.719; -129.975; -537.000; -682.000
844.969;  -97.725; -550.000; -580.000
845.219; -155.925; -814.000; -862.000
845.469;  -85.075; -392.000; -342.000
845.719; -132.475; -792.000; -884.000
845.969;  -13.350;  119.000;  174.000
846.219; -122.025; -738.000; -720.000
846.469;    9.875;  464.000;  432.000
846.718;  -65.975; -115.000;   31.000
846.968; -136.975; -827.000; -827.000
847.218;  -49.850; -224.000; -371.000
847.468;  -10.300; -586.000; -555.000
847.718; -160.150; -827.000; -798.000
847.967; -135.750; -826.000; -915.000
848.217;  -84.450; -449.000; -569.000
848.467;  -78.050; -405.000; -376.000
848.716; -123.050; -708.000; -725.000
848.966;    8.975; -372.000; -358.000
849.215;  -64.150; -428.000; -419.000
849.465;  -95.175; -785.000; -615.000
849.714; -148.675;-1132.000;-1150.000
849.964;  -71.850; -551.000; -613.000
850.213;  -26.850; -393.000; -355.000
850.463;   69.350;  137.000;  340.000
850.712;   -5.375; -542.000; -567.000
850.961;    9.300; -739.000; -678.000
851.211;  103.100; -513.000; -504.000
851.460;  161.825; -635.000; -650.000
851.709;  586.350;  -25.000;   18.000
851.958;10692.400; -912.000; -750.000
852.208;12292.475; -859.000; -879.000
852.457;  442.600; -181.000;  -13.000
852.706;   65.025; -791.000; -823.000
852.955;   -6.575; -507.000; -528.000
853.204;  -86.925; -521.000; -461.000
853.453;  -78.500; -418.000; -458.000
853.702; -140.300; -660.000; -750.000
853.951; -111.300; -532.000; -520.000
854.200; -111.550; -613.000; -562.000
854.449; -135.925; -695.000; -661.000
854.698; -101.450; -340.000; -279.000
854.946;  -69.425; -181.000; -284.000
855.195; -152.500; -843.000; -868.000
855.444;  -95.000; -395.000; -420.000
855.693; -128.175; -345.000; -432.000
855.941; -112.875; -387.000; -516.000
856.190;  -49.825; -256.000; -382.000
856.439; -139.000; -652.000; -703.000
856.687;  -60.400;  -99.000;  -72.000
856.936; -126.350; -621.000; -323.000
857.184; -186.850;-1067.000;-1020.000
857.433; -113.900; -423.000; -512.000
857.681; -160.900; -989.000; -953.000
857.930;  -83.350; -282.000; -433.000
858.178; -175.375; -856.000; -929.000
858.427; -145.550; -802.000; -781.000
858.675; -121.125; -377.000; -544.000
858.923; -110.025; -527.000; -819.000
859.172; -190.025;-1094.000;-1070.000
859.420;  -94.675; -339.000; -239.000
859.668; -132.050; -624.000; -628.000
859.916;  -32.875;  109.000;  115.000
860.164; -122.750; -699.000; -603.000
860.413;  310.425; -878.000; -696.000
860.661;  225.875; -709.000; -577.000
860.909; -100.050; -339.000; -325.000
861.157;  -84.550; -277.000; -444.000
861.405; -118.025; -534.000; -670.000
861.653;   13.725;  310.000;  310.000
861.901;  190.675; -543.000; -613.000
862.149;   -0.425; -801.000; -824.000
862.396;  -96.675; -297.000; -187.000
862.644;  -90.350; -368.000; -347.000
862.892;  -37.950;   98.000;  138.000
863.140; -121.300; -549.000; -530.000
863.388; -164.900; -815.000; -759.000
863.635; -139.475; -642.000; -601.000
863.883;   -7.400;  231.000;  190.000
864.131; -111.725; -288.000; -357.000
864.378; -146.550; -675.000; -540.000
864.626; -108.625; -347.000; -415.000
864.873; -125.700; -556.000; -505.000
865.121; -152.175; -714.000; -799.000
865.368;  -58.950; -173.000;   75.000
865.616;  -46.075;  -33.000;  -40.000
865.863;  -83.875; -462.000; -506.000
866.111; -109.300; -795.000; -824.000
866.358;   15.500; -426.000; -420.000
866.605; 2193.525;  -64.000; -804.000
866.853; 2081.050; -621.000; -537.000
867.100;  -67.925; -728.000; -775.000
867.347; -115.825; -672.000; -611.000
867.594;  -81.150; -740.000; -714.000
867.841;   85.200;   97.000;   17.000
868.089; -150.975; -746.000; -698.000
868.336; -119.575; -477.000; -420.000
868.583; -154.975; -637.000; -741.000
868.830;  -59.900; -131.000; -170.000
869.077; -174.425; -859.000; -787.000
869.324; -135.050; -502.000; -458.000
869.571; -144.775; -398.000; -430.000
869.818; -120.375; -485.000; -439.000
870.065; -106.425; -439.000; -513.000
870.311; -118.075; -456.000; -542.000
870.558; -104.025; -332.000; -311.000
870.805;  -87.175; -320.000; -384.000
871.052; -107.675; -494.000; -369.000
871.298;  -61.650; -204.000; -131.000
871.545;  -67.850; -151.000; -185.000
871.792; -100.575; -173.000; -222.000
872.038;  -72.200;   43.000; -126.000
872.285; -131.700; -496.000; -387.000
872.532; -106.325; -357.000; -387.000
872.778;   10.900;  556.000;  403.000
873.025;  -97.850; -384.000; -359.000
873.271;   30.075;  501.000;  578.000
873.517;  -35.950; -133.000; -209.000
873.764;  -46.175; -193.000;  -80.000
874.010;  -75.725; -143.000; -230.000
874.257;  -48.525;  123.000;   90.000
874.503; -131.050; -579.000; -479.000
874.749;  -71.075;   31.000;  275.000
874.995;  -63.975;  -80.000;  -20.000
875.242; -129.450; -540.000; -478.000
875.488; -111.225; -414.000; -439.000
875.734;  -52.950; -106.000; -234.000
875.980;  216.000; -872.000;-1032.000
876.226;  367.600; -157.000; -255.000
876.472;   -4.550;  343.000;  237.000
876.718;  -46.325;  184.000;  158.000
876.964;  -56.725;   56.000;   55.000
877.210; -176.450; -547.000; -677.000
877.456; -145.600; -630.000; -557.000
877.702; -191.450; -821.000; -832.000
877.948; -116.000; -377.000; -497.000
878.193;   15.300;  361.000;  255.000
878.439;  -97.050; -487.000; -472.000
878.685; -106.100; -272.000; -343.000
878.931; -136.000; -618.000; -676.000
879.176;  -92.425; -201.000; -201.000
879.422; -177.850; -933.000; -820.000
879.668;   31.875;   10.000;   79.000
879.913;  141.025;   53.000;  137.000
880.159;  -63.450; -112.000;  -17.000
880.404;  -50.800; -152.000; -162.000
880.650;  -49.400;   91.000;  141.000
880.895; -155.750; -670.000; -710.000
881.141; -132.675; -454.000; -428.000
881.386; -152.200; -503.000; -658.000
881.631;  -86.575; -311.000; -166.000
881.877;  -45.750;  112.000;  -13.000
882.122; -139.425; -684.000; -600.000
882.367;  -84.375; -136.000; -186.000
882.612;  -85.900;  -80.000; -176.000
882.858; -183.275; -877.000; -823.000
883.103; -112.075; -297.000; -267.000
883.348; -168.300; -759.000; -852.000
883.593; -149.400; -677.000; -602.000
883.838;  -56.600; -311.000;  -24.000
884.083;   28.700;  353.000;  288.000
884.328;  -95.450; -564.000; -545.000
884.573;  -50.975; -196.000; -143.000
884.818;  218.500; -694.000; -531.000
885.063;  173.575; -348.000; -315.000
885.308; -105.900; -475.000; -398.000
885.553;  -34.650;  245.000;  325.000
885.797; -134.975; -545.000; -615.000
886.042;  -61.625;    8.000;   58.000
886.287;  -85.200; -253.000; -211.000
886.532;  -62.175;   26.000;  204.000
886.776; -104.450; -407.000; -525.000
887.021; -152.325; -621.000; -574.000
887.265; -154.225; -685.000; -689.000
887.510; -149.125; -557.000; -496.000
887.755;  -99.650; -194.000; -164.000
887.999; -148.800; -552.000; -575.000
888.244;  -57.450;  -58.000;  161.000
888.488;   -7.700;  371.000;  393.000
888.732; -134.300; -368.000; -520.000
888.977; -141.625; -622.000; -567.000
889.221; -166.525; -683.000; -659.000
889.465; -139.850; -422.000; -566.000
889.710;  -81.600;  -56.000; -299.000
889.954;    1.075;  579.000;  467.000
890.198; -151.850; -584.000; -707.000
890.442; -156.775; -716.000; -712.000
890.687; -161.025; -800.000; -753.000
890.931; -103.300; -273.000; -210.000
891.175; -141.450; -502.000; -500.000
891.419;  -85.225; -105.000; -110.000
891.663;  -90.400; -239.000; -112.000
891.907; -164.500; -801.000; -545.000
892.151; -175.375; -920.000; -815.000
892.395; -128.525; -274.000; -387.000
892.638;  -30.250;  408.000;  291.000
892.882; -191.275; -780.000; -867.000
893.126;    8.675;  758.000;  558.000
893.370;  -99.375; -167.000; -168.000
893.614; -145.625; -714.000; -715.000
893.857; -118.650; -183.000; -197.000
894.101; -143.250; -527.000; -631.000
894.345;  -65.975;  300.000;  150.000
894.588;   14.125;  569.000;  380.000
894.832;  -78.650; -178.000;  -84.000
895.075;  -77.925;   15.000;  -92.000
895.319; -128.850; -552.000; -420.000
895.563; -128.400; -413.000; -353.000
895.806; -148.725; -628.000; -741.000
896.049;  -52.050; -576.000; -368.000
896.293;  105.300;  527.000;  405.000
896.536;  -72.675; -465.000; -468.000
896.779;  -61.400; -149.000;   -1.000
897.023; -135.400; -751.000; -714.000
897.266;  -32.750;  325.000;  269.000
897.509; -182.050; -900.000; -901.000
897.752;  -44.875;  149.000;  171.000
897.996; -197.850; -972.000; -864.000
898.239;  -43.800;  168.000;  102.000
898.482; -128.150; -431.000; -453.000
898.725;  -47.175;  101.000;   53.000
898.968; -154.250; -609.000; -744.000
899.211; -116.575; -513.000; -361.000
899.454; -131.275; -633.000; -539.000
899.697;  -75.750;   90.000;  -43.000
899.940; -161.875; -761.000; -757.000
900.182; -109.500; -335.000; -405.000
900.425;  -96.450; -150.000; -298.000
900.668;  -13.475;  491.000;  350.000
900.911; -114.200; -292.000; -345.000
901.154;  -51.000;  141.000;   -3.000
901.396; -138.600; -407.000; -412.000
901.639; -147.250; -430.000; -496.000
901.882; -179.250; -790.000; -809.000
902.124;  -91.200;  -29.000; -143.000
902.367; -129.600; -315.000; -361.000
902.609; -145.125; -476.000; -453.000
902.852; -108.300; -108.000; -260.000
903.094; -135.025; -458.000; -337.000
903.337;  -63.450;  -26.000;   53.000
903.579; -126.200; -228.000; -441.000
903.821; -158.175; -597.000; -744.000
904.064;  -67.675;   85.000;  127.000
904.306;  -93.250; -126.000; -166.000
904.548; -119.575; -152.000; -366.000
904.790;  -91.500; -195.000; -340.000
905.033; -140.400; -625.000; -577.000
905.275; -149.750; -513.000; -524.000
905.517;   30.575;  468.000;  256.000
905.759;  -64.300; -667.000; -761.000
906.001;  -86.900; -322.000; -369.000
906.243;  -60.150; -162.000; -224.000
906.485;  125.250; -265.000; -207.000
906.727;  101.625; -499.000; -542.000
906.969;  -33.500;  -30.000; -135.000
907.211;  134.250; -316.000; -382.000
907.453;  288.450; -188.000; -237.000
907.695;  -12.050; -158.000; -385.000
907.936;   33.875;  818.000;  706.000
908.178;  -62.300;   92.000; -135.000
908.420;  -71.425; -111.000; -162.000
908.662; -151.875; -633.000; -682.000
908.903;  -95.450; -208.000; -123.000
909.145;  -82.900; -240.000; -305.000
909.386;   -7.775;  315.000;  280.000
909.628;   30.550;  363.000;  397.000
909.870;   -6.450;   29.000;  264.000
910.111; -105.275; -809.000; -949.000
910.353;   -7.450; -123.000; -161.000
910.594;  -11.125; -574.000; -606.000
910.835;   86.975; -265.000; -326.000
911.077;  154.650; -503.000; -604.000
911.318;  290.800; -505.000; -471.000
911.559;  448.375; -577.000; -880.000
911.801; 1378.300; -284.000; -280.000
912.042;10804.575;  -50.000; -159.000
912.283;26477.750;  404.000;  371.000
912.524; 3770.750; -396.000; -457.000
912.765;  454.775; -193.000;   79.000
913.006;  230.250; -307.000; -338.000
913.247;   27.875; -270.000; -290.000
913.488;  -14.550;  -43.000;   30.000
913.729; -103.075; -373.000; -373.000
913.970;  -65.500;  -96.000; -292.000
914.211;  -81.350; -160.000; -198.000
914.452;  -60.225; -118.000;  -11.000
914.693;   -2.050;  510.000;  592.000
914.934;   -1.750;  510.000;  440.000
915.175;  -68.950;   53.000;  -95.000
915.415;  -85.950; -137.000;   27.000
915.656;  -73.050;  -28.000;  192.000
915.897; -111.625; -252.000;  -82.000
916.137;  -85.650;   74.000;   -9.000
916.378; -128.050; -573.000; -517.000
916.619;  -94.175; -159.000;  -63.000
916.859;  -17.550;  303.000;  330.000
917.100;  145.800; 1655.000; 1070.000
917.340;   46.625;  930.000;  728.000
917.581;   43.075;  965.000;  789.000
917.821;  -24.000; -171.000;  143.000
918.061;   11.200; -199.000;  -72.000
918.302;  -55.150; -152.000; -211.000
918.542;  -34.025;  -22.000;    3.000
918.782;   41.875;  369.000;  377.000
919.023;  133.825;  360.000;  427.000
919.263; 1841.425; 8131.000;  202.000
919.503; 1121.600; -137.000;  -54.000
919.743;  672.600;  390.000;  266.000
919.983;  261.150; -134.000;  -26.000
920.223;   56.350;  135.000;   14.000
920.463;  135.775;  631.000;  554.000
920.703;  131.900;   84.000;   39.000
920.943;  139.900; -110.000;   90.000
921.183;  222.675; -414.000; -405.000
921.423;  476.900;  307.000;  546.000
921.663;  723.850; -174.000; -257.000
921.903; 1567.900;  237.000;  173.000
922.143; 8817.450;  372.000;  389.000
922.383;32987.250;  158.000;  115.000
922.622;10404.600; -120.000;  -15.000
922.862; 1102.825;  796.000;  785.000
923.102;  436.900;  -51.000;   33.000
923.341;  156.375;   59.000;   74.000
923.581;   77.125;  450.000;  360.000
923.821;    5.725;  301.000;  398.000
924.060;   -2.675;  351.000;  193.000
924.300;  -58.875;  -16.000; -128.000
924.539;  -25.200;  584.000;  473.000
924.779;    7.525;  812.000;  597.000
925.018;  -32.225;  247.000;  353.000
925.257;    0.875;  595.000;  666.000
925.497;  -38.400;  447.000;  412.000
925.736;  -86.875;  -35.000;  102.000
925.975;    2.450;  687.000;  669.000
926.214;   23.300;  907.000;  850.000
926.454;   37.900;  706.000;  757.000
926.693;  -31.450;  419.000;  543.000
926.932;   38.950; 1021.000;  825.000
927.171;   63.175; 1107.000; 1044.000
927.410;   61.600; 1144.000;  967.000
927.649;   15.400;  924.000;  742.000
927.888;   -5.300;  590.000;  564.000
928.127;  -29.275;  680.000;  678.000
928.366;   20.650;  842.000;  826.000
928.605;   32.075;  831.000;  737.000
928.844;  238.450; 1451.000; 1393.000
929.083;  630.275;  770.000;  613.000
929.321;  310.200; 1335.000; 1359.000
929.560;   83.900; 1158.000; 1122.000
929.799;  -41.075;  574.000;  475.000
930.038;   85.400; 1025.000; 1394.000
930.276;  -49.150;  334.000;  397.000
930.515;   -6.925;  827.000;  681.000
930.753;   -6.275;  614.000;  589.000
930.992;  -24.550;  664.000;  717.000
931.230;    8.075;  847.000;  847.000
931.469;  156.450; 2162.000;  892.000
931.707;   62.375;  840.000;  751.000
931.946;   71.200; 1278.000; 1344.000
932.184;   60.450; 1437.000; 1175.000
932.423;   27.825; 1265.000;  963.000
932.661;   93.100; 1296.000; 1428.000
932.899;    7.000;  987.000;  821.000
933.137;    6.975;  754.000;  564.000
933.376;  124.375; 1664.000; 1335.000
933.614;  168.200; 1759.000; 1196.000
933.852;   51.925; 1357.000; 1171.000
934.090;  132.375; 1722.000; 1747.000
934.328;  107.775; 1252.000; 1457.000
934.566;   88.325; 1431.000; 1110.000
934.804;  117.650; 1263.000; 1309.000
935.042;  439.000; 1861.000; 1850.000
935.280; 1687.950; 2088.000; 2063.000
935.518; 1540.900; 2113.000; 2007.000
935.756;  347.550; 2481.000; 2316.000
935.994;  178.075; 1808.000; 1751.000
936.231;  369.350; 2890.000; 2950.000
936.469;  188.900; 2367.000; 2378.000
936.707;  144.975; 2220.000; 2167.000
936.945;  230.625; 2825.000; 2882.000
937.182;  189.075; 2679.000; 2741.000
937.420;  318.400; 3602.000; 3031.000
937.657;  426.900; 3365.000; 3478.000
937.895;  353.300; 3331.000; 3488.000
938.133;  312.100; 3540.000; 3528.000
938.370;  357.100; 3896.000; 4191.000
938.607;  405.725; 4488.000; 4205.000
938.845;  562.850; 5587.000; 5549.000
939.082;  482.250; 5387.000; 5177.000
939.320;  552.000; 5799.000; 5728.000
939.557;  632.325; 6549.000; 6491.000
939.794;  735.150; 7285.000; 7097.000
940.031;  925.525; 8421.000; 8368.000
940.269; 1119.125; 9552.000; 9107.000
940.506; 1127.325;10901.000;10507.000

