
Integration time [ms]: 100.000
Averaging Nr. [scans]: 40
Smoothing Nr. [pixels]: 0
Data measured with spectrometer [name]: 2101013U2
Wave   ;Sample   ;Dark     ;Reference
[nm]   ;[counts] ;[counts] ;[counts] 

394.013;   41.891; -450.257; -315.536
394.305;  191.114; -461.258; -419.536
394.596; 1127.012; -676.269; -527.514
394.887; 2803.678; -796.268; -654.518
395.178; 1085.108;  145.736;   11.476
395.470;   83.219; -210.263; -356.526
395.761;  197.268;  305.734;  394.479
396.052;  266.862; -545.284; -306.489
396.343;  281.107; -557.276; -454.503
396.634;   85.451; -200.279; -290.497
396.926;   75.350; -618.268; -565.517
397.217;   92.861;   11.725;  -17.504
397.508;   40.852; -366.273; -154.507
397.799;   20.226; -555.279; -571.497
398.090;   -6.305; -973.280; -902.495
398.381;  102.138;   11.708;  -11.473
398.672;  -17.361; -585.292; -742.473
398.963;   35.282; -348.279; -373.498
399.254;   94.848;   54.709; -209.475
399.545;  -41.986;-1017.266; -883.520
399.836;   65.746; -407.277; -343.501
400.127;   49.265; -205.295; -209.468
400.418;   42.921; -423.274; -392.506
400.709;   51.207; -359.281; -333.493
401.000;   42.477; -268.291; -309.476
401.290;   96.577;  225.698;  115.545
401.581;   56.145; -166.286; -228.485
401.872;    3.887; -542.298; -486.462
402.163;   43.432; -313.296; -252.467
402.454;   80.224; -123.291; -163.475
402.744;   40.598; -844.297; -813.465
403.035;  393.379; -226.293;  -86.471
403.326;  492.492; -366.292; -384.474
403.617;  367.231;  204.701;  165.539
403.907;  257.518; -593.283; -679.490
404.198; 2482.781; -545.307; -599.446
404.489; 6427.898; -618.283; -588.491
404.779; 2055.805; -618.302; -660.456
405.070;  212.509;  -67.304; -174.451
405.360;  318.906; -259.293; -238.472
405.651;  357.916;  125.699;   98.542
405.942;  172.541;  209.714;  127.516
406.232;  201.455; -432.285; -413.487
406.523;  402.324;  641.706;  758.530
406.813;   69.418; -579.286; -644.484
407.104;  288.337;  261.708;  144.527
407.394;  132.008; -604.299; -591.462
407.685;  137.904;  336.715;  222.513
407.975;   48.547; -400.283; -382.490
408.265;  110.738; -134.289; -190.478
408.556;   55.646; -472.291; -459.475
408.846;  159.850;  474.706;  429.530
409.137;   68.421;   -1.288; -216.480
409.427;   45.680; -193.285; -271.487
409.717;   48.030; -776.273; -692.508
410.007;  136.498;    4.715; -170.486
410.298;   83.167; -360.295; -342.469
410.588;   60.077; -495.285; -510.486
410.878;   23.757; -792.287; -873.482
411.168;  104.989; -481.298; -478.463
411.459;  111.266; -295.283; -242.489
411.749;   56.944; -609.292; -507.474
412.039;   55.170; -755.289; -386.480
412.329;  199.389;   40.722;  132.501
412.619;  211.118;  -62.286; -148.485
412.909;  354.666;  639.711;  594.521
413.199;  297.470; -130.280; -251.495
413.490;  372.457;  521.710;  352.523
413.780;  140.874;-1013.279; -913.496
414.070;  322.608;  -46.276;  235.497
414.360;  353.285; -729.278; -666.498
414.650;  400.729; -726.288; -688.482
414.940;  521.099; -538.280; -441.496
415.230;  925.126;   50.712;   74.519
415.520; 6207.461;  155.730;   66.486
415.809;24463.107; -305.281; -125.493
416.099;18827.273; -388.277; -229.501
416.389; 5348.794;  435.726;  236.494
416.679; 3176.573;   91.738;   85.473
416.969;  522.187; -527.287; -503.483
417.259;  449.226;  341.721;  171.503
417.549;  689.131;  522.718;  318.508
417.838; 1672.127; -205.268; -147.518
418.128; 5677.037;  650.710;  492.522
418.418; 4744.511; -491.272; -579.509
418.708; 3186.519;    9.726;  -48.506
418.997;12077.315; -474.275; -480.505
419.287;12587.901; -733.273; -790.507
419.577;11985.116; -160.283; -123.489
419.866;39505.346; -588.277; -498.501
420.156;40073.807; -242.270;  -55.513
420.446; 7034.190; -112.263;  -26.526
420.735;  808.551; -376.271; -446.512
421.025;  811.334; 1830.722;  315.502
421.314;  614.149; -203.271; -226.512
421.604; 1181.920;   89.732;  233.484
421.893;  702.045; -705.271; -602.511
422.183;  222.966; -487.263; -461.526
422.472;  360.122;  -36.271; -107.511
422.762;  430.795; -416.266; -379.521
423.051;  245.383; -916.276; -916.503
423.341;  292.653; -491.273; -439.507
423.630;  393.501; -121.265;   15.477
423.919;  385.964;   58.725;   49.495
424.209;  377.821;  -31.263;   56.473
424.498;  483.550;   68.732;  161.483
424.787; 1112.656; -535.267; -601.518
425.077; 3382.375;   34.735;   29.478
425.366; 4579.402; -734.262; -744.528
425.655;10190.404;  639.727;  259.493
425.945;23030.454; -313.247; -268.554
426.234;12623.374;  117.741;  300.467
426.523; 5162.654;  -86.259; -350.534
426.812; 7087.766;  107.734;  159.480
427.101;10518.492; -127.269; -323.515
427.390;13149.536;  -55.270;  -86.514
427.680; 2783.674; -624.257; -411.538
427.969;  469.760; -330.255; -301.540
428.258;  311.290; -385.257; -477.536
428.547;  493.715;  449.728;  397.490
428.836; 1123.200; -421.253; -398.543
429.125; 1619.481; -199.259;  -72.534
429.414;  764.073; -330.251; -294.548
429.703; 3188.998; -231.251; -213.548
429.992; 9611.701; -938.250; -828.549
430.281; 6252.709; -397.264; -331.524
430.570;  544.614;  -21.252;   32.454
430.859;  487.504;  279.741;  352.466
431.148;  389.550;  636.752;  631.446
431.437;  274.163;  391.748;  367.454
431.725;  165.192; -544.257; -481.536
432.014;  138.683; -845.253; -756.545
432.303;  362.025; -149.239; -105.569
432.592;  561.290; -460.263; -178.525
432.881; 1044.901; -601.248; -437.554
433.169; 6441.785; -343.255;  -61.540
433.458;13046.934;  445.765;  540.424
433.747; 5408.232; -397.261; -289.529
434.036;  817.001; -275.242; -280.564
434.324; 2130.164; -395.249; -379.551
434.613; 3713.870;   40.757;  159.437
434.902; 1171.615;  333.760;  439.433
435.190;  455.924;   75.761;  295.431
435.479;  262.002;  -52.245;   83.441
435.767;   81.485; -411.244; -427.561
436.056;  193.947; -340.242; -294.563
436.345;  368.943; -372.240; -223.568
436.633;  366.309;   60.750;  383.450
436.922;  227.620;  208.760;  414.432
437.210;  466.949; -194.236;    1.426
437.499; 1452.982; -583.235; -432.576
437.787; 1606.523; -339.236;  -10.574
438.075;  429.680;   56.761;  162.430
438.364;  576.382;  -44.238;  250.429
438.652;  344.411; -286.226; -138.592
438.941;  126.125;    3.770;  269.415
439.229;   -5.589; -665.252; -466.545
439.517;   24.640; -160.234;  -85.577
439.806;   -0.024; -501.225; -290.595
440.094;  161.448;  377.766;  650.421
440.382;  133.851; -653.233; -302.580
440.670;  145.481; -361.235; -285.576
440.959;   13.119; -347.223; -170.599
441.247;   68.487; -151.229; -109.587
441.535;   89.163; -266.235;   31.423
441.823;   24.245; -497.234; -305.578
442.111;  165.791;  173.771;  327.412
442.400;  422.301; -628.245; -335.559
442.688; 1125.497; -111.234; -620.579
442.976;  780.805; -786.213; -450.617
443.264;   90.433; -324.224; -364.597
443.552;   91.637; -258.226;   51.408
443.840;  163.037;  602.765;  876.423
444.128;  112.026;  265.767;  269.420
444.416;    4.043; -694.228; -312.588
444.704;   23.948; -465.219;  -92.605
444.992;   69.665;   -0.226;  240.407
445.280;   39.951; -517.230;  -94.585
445.568;   44.734; -694.212; -396.618
445.856;  277.457; -174.221;  357.398
446.143;  637.519;  -54.220;   -7.604
446.431;  521.172;  -25.228;  625.411
446.719;  219.892;  489.783;  675.391
447.007;  182.020;  481.769;  705.416
447.295;  176.166;  597.777;  871.402
447.583;   71.684; -464.229;  -34.587
447.870;  131.279; -434.221; -202.601
448.158;  360.900; -104.230;  129.415
448.446;  249.220; -800.219; -338.604
448.733;  158.909;   13.776;  269.403
449.021;  205.384;   60.788;  341.382
449.309;  176.373; -296.210;  208.379
449.596;  200.338;  128.783;   59.392
449.884;  143.723; -571.222; -325.600
450.172;  142.777; -756.227; -406.590
450.459;  444.089;  645.786;  780.387
450.747; 2507.712; -411.218; -147.608
451.034; 8055.823;  493.772;  889.411
451.322; 6580.792; -413.214; -170.614
451.609;  544.961;  292.777;  508.403
451.897;  620.286; -550.203; -183.634
452.184; 1853.391; -622.223; -400.598
452.472; 1736.445;   97.792;  269.375
452.759;  327.196;  512.781;  864.395
453.047;  103.431; -407.212; -125.617
453.334;   72.229; -732.219; -216.606
453.621;   51.219; -438.214; -161.615
453.909;  101.753;   13.796;  384.368
454.196;  109.873; -299.199; -123.641
454.483;  200.974;  317.798;  540.364
454.771;  119.723; -215.208;  196.374
455.058;   38.026; -316.207;  102.374
455.345;  103.227;   71.807;  344.347
455.632;   77.804; -128.207;  235.373
455.919;   57.345;  -82.196;  182.354
456.207;  -52.673; -774.198; -450.642
456.494;  -20.864; -475.200;  -66.639
456.781;    7.144; -399.202; -198.635
457.068;   50.686; -253.206;  -29.628
457.355;  -13.913; -698.206; -401.629
457.642;   -6.608; -552.205; -290.630
457.929;  -12.957; -778.194; -417.651
458.216;   59.981; -575.212; -354.617
458.503;  257.223; -173.193;  -19.652
458.790;  250.270; -864.208; -630.625
459.077;  274.424;  -77.202;  110.364
459.364;  820.036; -350.195; -210.649
459.651; 1768.708;  -46.206;  220.372
459.938;  799.786; -864.209; -665.623
460.225;  135.327;  132.799;  276.363
460.512;  -41.758; -836.197; -688.645
460.799;   98.336;  -32.218;  320.392
461.086;   53.390; -370.200; -251.640
461.372;   17.378; -509.198; -279.642
461.659;   96.746; -165.196;  108.354
461.946;   42.822; -445.193;  -54.651
462.233;  219.613;  842.800;  888.361
462.519;  337.085; -814.201; -464.639
462.806; 1024.993; -768.197; -497.645
463.093;  896.367; -445.191;  -66.656
463.380;  -29.867; -920.186; -824.664
463.666;   43.969; -259.197;  -18.646
463.953;   88.056; -406.195; -243.648
464.239;  189.481; -173.195;  -77.648
464.526;  373.892;  413.806;  743.350
464.813;  315.904; -565.190; -304.658
465.099;  311.098;  606.807;  607.348
465.386;  294.552;  903.807;  921.348
465.672;   14.343; -694.197; -522.645
465.959;    0.171; -598.188; -520.662
466.245;   10.127; -468.193; -359.652
466.532;   80.429; -109.195;   63.352
466.818;   52.658; -357.186; -216.664
467.104;  -20.878; -488.182; -415.672
467.391;  -33.620; -628.189; -459.658
467.677;   30.311; -289.186;    9.335
467.964;    2.862; -682.189; -471.660
468.250;   44.689; -331.186; -160.665
468.536;   57.632;   90.811;  180.341
468.822;  -26.149; -821.184; -574.668
469.109;  134.077;  351.827;  471.311
469.395;  181.086;  729.808;  787.346
469.681;  183.060;   46.811;  156.341
469.967; 1248.414; -699.188; -382.660
470.254; 2790.372; -494.188; -306.662
470.540; 1760.295; -601.196; -476.646
470.826;  243.308; -488.181; -397.675
471.112;  310.379;  288.816;  113.331
471.398;   86.934; -253.183;  -58.670
471.684;   26.686; -626.177; -447.680
471.970;   -7.838; -918.180; -981.675
472.256;   20.235; -521.192; -441.654
472.542;    5.263; -499.171; -434.691
472.828;   11.518; -743.182; -607.672
473.114;   11.706; -380.166; -283.700
473.400;    0.253; -504.175; -293.684
473.686;   25.787; -452.166; -400.701
473.972;   40.317; -230.174; -131.687
474.258;  -47.373; -925.173; -843.689
474.544;  203.753; -183.178;   -2.679
474.830;  341.854;  -65.175;   45.316
475.116;  531.730; -123.190; -196.658
475.401;  715.589; -558.180; -467.676
475.687;  182.938; -725.180; -718.676
475.973;   -1.399; -673.181; -770.673
476.259;  228.532;  736.825;  764.315
476.544;  359.444; -539.176; -437.682
476.830;  904.334; -398.172; -322.690
477.116;  761.518; -430.177; -336.682
477.401;  138.689;  346.820;  358.324
477.687;  -26.272; -289.175; -405.684
477.973;   29.955;   21.819;   28.326
478.258;  -17.042; -448.163; -348.706
478.544;   51.644;   21.815;   61.334
478.829;  -48.931; -818.171; -738.692
479.115;  -53.691; -749.172; -651.690
479.401;  -22.737; -444.174; -449.686
479.686;   31.238; -253.180;  -74.676
479.972;  -39.192; -886.178; -776.680
480.257;   35.358; -258.166;  -65.700
480.542;    5.197; -614.170; -469.693
480.828;  228.176; 1288.824; 1392.317
481.113;  -33.601; -464.176; -426.683
481.399;  -11.019; -236.161; -202.711
481.684;  -55.368; -620.166; -462.700
481.969;   19.169; -158.159;  -73.713
482.255;  -17.492; -439.169; -285.695
482.540;   -8.466; -569.178; -441.680
482.825;    7.178; -395.187; -404.663
483.110;   86.911;  -85.169; -105.696
483.396;  213.616; -840.157; -652.718
483.681;  528.442;  543.826;  730.313
483.966;  181.713; -696.160; -700.712
484.251;   -1.359; -404.174; -310.687
484.536;   -4.482; -356.165; -378.703
484.822;   -2.331; -205.173; -218.687
485.107;  -36.372; -599.152; -502.726
485.392;  128.723;  662.836;  541.296
485.677;   54.996;  354.832;  163.302
485.962;   95.763;  160.843;  270.283
486.247;   73.965;  -14.162;   -8.707
486.532;   37.909; -178.166; -325.701
486.817;  160.651;  381.839;  431.291
487.102;  113.087; -453.154; -514.722
487.387;  699.493; -637.156; -652.718
487.672; 1259.153; -154.164;  -38.705
487.957;  800.408; -394.160; -286.711
488.241;  218.445; -290.150; -314.729
488.526;  775.355; -280.152; -148.726
488.811; 1290.535; -881.177; -818.680
489.096;  908.039; -666.154; -702.723
489.381;  506.651;    3.847;  162.275
489.666;  412.381; -428.161; -510.710
489.950;  180.692;  558.846;  627.277
490.235;  -47.510; -480.151; -458.728
490.520;  -44.995; -756.161; -723.710
490.804;  -63.580; -827.156; -736.719
491.089;   -7.839; -469.149; -299.732
491.374;   37.452; -132.164;  -75.704
491.658;  -20.603; -817.147; -717.735
491.943;  155.234; -657.152; -609.727
492.227;  236.608; -178.155;  -38.721
492.512;   34.338; -294.157; -341.717
492.797;  -74.370; -713.149; -716.731
493.081;  -47.625; -588.147; -598.735
493.366;  -46.819; -751.161; -635.711
493.650;  191.252;  831.859;  917.254
493.935;   32.421; -648.147; -447.734
494.219;  -42.935; -778.142; -687.743
494.503;  -60.275; -585.150; -487.730
494.788;   54.205;   46.842;   74.285
495.072;  100.146;  184.850;  434.271
495.356;  153.564; -463.148; -343.733
495.641;  450.906; -812.146; -736.736
495.925;  423.624; -976.156; -903.719
496.209;   37.485; -599.149; -451.732
496.494;  -52.785; -763.142; -544.744
496.778;   -9.638; -364.154; -360.722
497.062;  -55.476; -819.156; -627.719
497.346;  -45.266; -869.160; -640.711
497.631;  144.767;  580.852;  560.266
497.915;   67.166;  -64.145;  175.261
498.199;   50.216; -341.157; -277.718
498.483;   33.278; -562.152; -508.725
498.767;  209.047;  301.850;  300.271
499.051;  192.508; -126.149; -100.732
499.335;   25.681; -693.149; -739.731
499.619;  -26.623; -381.129; -423.767
499.903;   14.981; -272.155;  -65.721
500.187;   20.144; -588.153; -316.724
500.471;    9.733; -796.152; -595.727
500.755;   81.280;   62.839;  -96.710
501.039;    9.557; -270.155; -357.721
501.323;   86.054;  -21.141;  264.254
501.607;   21.533; -447.163; -503.706
501.891;    3.167; -607.156; -512.718
502.174;  -30.597; -726.144; -585.741
502.458;   65.387;   89.849;  370.273
502.742;   45.902; -180.138; -191.751
503.026;  113.271; -412.147; -254.734
503.310;  201.993; -437.159; -375.713
503.593;  124.973; -464.147; -325.735
503.877;  113.667; -232.133; -156.760
504.161;  167.296;    2.847;  -50.724
504.444;  135.757; -841.158; -710.716
504.728;  471.751; -487.164; -522.704
505.012;  753.394; -257.150;  -76.729
505.295;  564.206; -417.161; -212.711
505.579;  550.199; -256.156; -496.719
505.862;  814.813; -555.145; -333.738
506.146;  788.921; -681.159; -758.714
506.429;  427.996;  568.841;  461.286
506.713;   64.766; -732.151; -667.728
506.996;  336.386;   90.846;  295.278
507.280;  363.671; -633.165; -474.703
507.563;  244.405; -469.155; -261.721
507.847;  107.420; -423.153; -112.724
508.130;   83.757; -665.161; -456.711
508.413;  137.003; -758.167; -577.700
508.697;  255.928; -151.167;   12.300
508.980;  159.821; -422.153; -312.724
509.263;  -16.524; -466.155; -450.720
509.547;   27.394; -124.150;   82.271
509.830;   45.684; -172.160;  140.289
510.113;   78.749;  128.844;  298.281
510.396;   27.402; -530.152; -300.725
510.680;  107.739; -818.145; -812.738
510.963;  487.891;  184.846;  180.277
511.246;  416.552; -493.150; -357.730
511.529;  240.294; -482.145;  -83.739
511.812;  398.089; -250.134;   10.241
512.095;  293.439; -740.151; -396.728
512.378;   71.552; -317.147; -245.736
512.661;   31.360; -703.137; -623.753
512.944;   30.992; -750.142; -637.744
513.227;   74.207; -170.137; -171.752
513.510;   24.503; -479.144; -671.741
513.793;   15.283; -485.140; -435.747
514.076;  128.348;  -43.127;  -39.771
514.359;  105.636; -294.149; -135.732
514.642;   96.044; -442.142; -567.744
514.925;  797.182;  581.860;  561.253
515.208; 1084.360; -498.134; -443.758
515.491;  697.449; -276.133; -182.761
515.773;  395.956; -410.143; -337.742
516.056; 2219.366;  249.864;  409.246
516.339; 2991.520; -754.136; -652.755
516.622; 1835.849; -518.150; -488.730
516.904; 1038.213;  882.857;  975.257
517.187;  463.756; -730.138; -523.752
517.470;  382.512; -568.143; -510.743
517.752;  468.748; -624.136; -470.756
518.035;  369.544; -708.139; -725.749
518.318;  401.995; -799.136; -744.755
518.600; 2643.002; -300.132; -325.762
518.883; 3651.144;  310.858;   88.256
519.165; 1715.899; -585.138; -426.751
519.448;  380.852;  -61.132;  -19.762
519.730;  188.030; -573.126; -415.773
520.013;  294.995;  588.867;  664.240
520.295;  698.616;  -94.134;  -15.759
520.578; 1524.265; -335.131; -305.764
520.860; 1764.002; -254.132;   56.238
521.143;  935.200; -763.135; -584.756
521.425;  462.943; -251.125; -279.775
521.707;  708.498; -622.127; -380.771
521.990; 1895.374; -199.127;  167.229
522.272; 2147.035; -116.140;   -4.748
522.554;  936.982; -237.143; -157.742
522.836;  323.413;  -24.134;   99.241
523.119;  180.695; -496.148; -189.734
523.401;  152.847; -448.130; -314.766
523.683;  101.585; -865.137; -693.753
523.965;  286.654;  408.862;  260.248
524.247;  275.914;   54.878;  170.220
524.529;  206.190; -451.134; -367.759
524.812;  368.774;   -3.130;  191.234
525.094;  907.553; -773.138; -631.751
525.376; 1438.427; -143.124;   78.223
525.658;  895.642; -441.136; -339.754
525.940;   20.937; -805.131; -671.764
526.222;   20.896; -188.136;  -88.755
526.504;  103.860; -190.131;   32.237
526.786;  139.193; -960.133; -647.760
527.068;  284.257; -124.123;  -67.778
527.349;   83.189; -865.137; -774.754
527.631;  131.852; -137.132;   22.238
527.913;  147.422; -664.127; -450.771
528.195;  179.836; -761.125; -639.774
528.477;  245.035;  -93.134;  -30.758
528.759;  155.574; -648.130; -522.766
529.040;   78.006; -569.123; -293.778
529.322;   45.914; -235.125;  -10.774
529.604;  128.501;  -47.130;   93.233
529.886;  104.680; -546.126; -302.773
530.167;  104.168;  232.870;  192.235
530.449;   43.251;    1.853;   63.265
530.731;   31.638; -572.122; -459.779
531.012;   69.584; -513.120; -216.784
531.294;   82.747; -118.116;  -43.792
531.575;  157.293;  290.875;  538.225
531.857;   49.030; -548.135; -266.757
532.138;  105.477; -113.141;   40.254
532.420;  159.777;  294.865;  403.244
532.701;  185.295; -722.133; -751.760
532.983;  312.698;  232.867;  182.239
533.264;  104.478; -243.126;  175.228
533.546;  -44.029; -491.136; -508.755
533.827;   45.717;  173.867;   -1.759
534.109;   36.055; -352.135;  -80.757
534.390;   89.281; -725.132; -582.762
534.671;  247.651; -270.135;  -82.756
534.953;  129.484; -751.123; -611.779
535.234;   16.607; -426.117; -255.789
535.515;  -75.108; -891.119; -735.785
535.796;  -13.107; -431.128; -193.770
536.078; -119.099;-1050.124; -904.777
536.359;   -2.791;  -22.123;    3.221
536.640;  -19.613; -480.125; -197.774
536.921;  154.731;  225.871;  143.232
537.202;  397.150;  -87.138;  -16.751
537.483;  471.715;  251.869;  377.236
537.764;  172.068;   17.870;   98.235
538.045;  -50.615; -543.134; -371.758
538.326;  -31.992; -596.129; -447.768
538.607;   11.249; -686.127; -476.771
538.888;  172.325;   98.879;    5.218
539.169;  204.069; -704.122; -535.781
539.450;  339.980;  236.871;   16.233
539.731;  229.929; -361.121; -182.783
540.012;  125.659;  199.880;  412.216
540.293;   70.346;   82.876;  158.224
540.574;   -0.232; -895.113; -717.796
540.855;  447.127;  435.879;  377.218
541.136;  541.542;   47.878;  139.220
541.416;  289.399; -161.130; -220.766
541.697;  205.735; -274.131; -170.763
541.978; 1109.204; -270.135; -315.757
542.259; 1405.724; -211.127; -236.771
542.539;  680.366; -191.116; -186.790
542.820;  192.367;  461.875;  480.225
543.101;  132.441;  -52.145;  -77.738
543.381;   19.948; -638.127; -591.771
543.662;  260.296;  159.873; -254.771
543.942;  619.269; -751.127; -830.770
544.223; 1109.968;  193.878;  161.219
544.504;  738.026; -275.124; -182.777
544.784;  609.530; -592.126; -408.773
545.065; 1729.445;  104.884; -254.791
545.345; 2033.492;  227.881;   14.215
545.626; 1351.042;  -14.113; -108.796
545.906;  942.742;   77.869;   98.235
546.186;  372.259;   92.874;  -95.773
546.467;  204.029;   99.877;  -95.778
546.747;  346.441;  264.884;  327.210
547.027;  400.975;   91.876;  111.223
547.308;  332.744; -376.127; -530.770
547.588;  415.783;  299.871;  371.232
547.868;  198.143;  458.870;  588.235
548.149;  183.802;  609.885;  593.207
548.429;  138.072; -347.127; -299.771
548.709;  214.533; -645.120; -461.784
548.989;  495.776;   84.882;   88.213
549.269; 2250.301;   10.868;  139.239
549.550; 5176.383;  215.877;  117.222
549.830; 4622.910; -758.111; -556.799
550.110;  904.442; -468.110; -320.801
550.390;  846.538; -128.122;  -56.779
550.670; 1236.338; -868.114; -783.795
550.950;  850.427; -509.121; -471.782
551.230;  189.298;  549.879;  460.218
551.510;  -12.049; -381.121; -326.782
551.790;   48.975; -173.109; -127.803
552.070;  272.779;  940.877; 1181.223
552.350;  441.421; -492.119; -377.786
552.630;  630.496;   -2.121;   77.219
552.909;  336.445;  181.884;   73.209
553.189;  243.532;  -49.132;   33.237
553.469;  209.095; -703.119; -514.786
553.749;  192.925; -469.127; -357.772
554.029;  159.486;   33.883;  -24.790
554.308;  144.631; -154.115;  -37.794
554.588;   60.642; -196.128; -204.770
554.868;   71.027; -366.121;  -47.782
555.147;  174.478; -114.115;  -46.793
555.427;  631.598; -260.116; -250.792
555.707; 4164.801; -284.115; -200.793
555.986; 5066.588; -719.111; -538.800
556.266; 2665.115;   23.884;   72.210
556.546;  133.126; -888.121; -675.782
556.825;  275.186; -657.114; -556.794
557.105; 1922.340; -125.128;   17.230
557.384; 2251.269;  122.884;  187.209
557.664;  842.547; -717.116; -508.792
557.943;  129.227; -557.121; -411.782
558.222;  185.154; -345.118; -344.788
558.502;  302.080; -116.115;  -76.793
558.781;  523.150;  194.885;  499.208
559.061;  435.204; -232.118; -227.788
559.340;  324.534;  302.883;  353.211
559.619;  751.739;   93.884;  148.210
559.899; 1111.136; -239.117; -266.789
560.178; 1006.104; -778.115; -593.793
560.457; 3368.762; -623.117; -562.790
560.736; 4732.689; -472.111; -482.800
561.015; 3112.988; -500.128; -502.769
561.295;  404.444;  180.893;  215.193
561.574;  338.577;  119.885;  116.207
561.853;  515.854;  274.891;  303.197
562.132;  527.007;  -45.114;  182.206
562.411;  475.296;  396.879;  553.219
562.690;  150.250; -592.115; -458.792
562.969;  153.674;  472.888;  630.203
563.248;  516.994; 2966.878; 2487.219
563.527;  289.613; -290.111; -408.800
563.806;  412.347; -650.127; -521.771
564.085;  434.784; -297.105; -206.810
564.364;  276.864; -594.117; -405.790
564.643;  543.747; -276.121; -223.781
564.922; 2008.498;  221.890;  397.198
565.201; 2054.126; -640.109; -700.803
565.479;  860.999; -297.115; -219.792
565.758;  344.916; -810.128; -712.770
566.037;  520.853; -155.109; -100.803
566.316;  252.269; -286.116;  -28.791
566.595;   47.302;  -17.115;  -12.793
566.873;   97.515; -166.111;  -79.801
567.152;  -51.902; -490.113; -590.797
567.431;   13.615; -113.116;    6.210
567.709;   14.620; -344.107; -212.807
567.988;  272.335; -810.114; -769.794
568.266;  562.601; -160.115;  -68.793
568.545;  403.431; -644.100; -514.819
568.824;  636.123;  160.885;  356.208
569.102;  603.285; -351.114; -235.794
569.381;  258.822; -492.116; -407.792
569.659;  -44.430; -553.113; -553.796
569.938;   47.967; -743.122; -465.780
570.216;  102.280; -225.109; -225.804
570.494;  -20.262; -632.114; -572.795
570.773;   30.725;  202.879;  114.218
571.051;   -0.893; -373.123; -357.778
571.330;   67.392; -221.113; -174.796
571.608;   42.123; -181.098; -173.823
571.886;  -60.767; -671.111; -581.799
572.164;  -79.198; -739.121; -621.782
572.443;  -43.212; -562.105; -512.811
572.721;  -36.912; -399.117; -289.790
572.999;  -17.719; -280.117; -168.788
573.277;   92.857;  379.894;  620.191
573.555;  313.234;   94.894;   37.190
573.834; 1443.731;  -86.117; -114.788
574.112; 1691.947;  880.893;  811.193
574.390;  508.439; -143.111;  -96.801
574.668;    4.500;  -91.112;  -61.797
574.946;  -11.341; -165.106; -187.810
575.224;   -6.149;   71.891;  -16.803
575.502;  -17.858; -200.116; -204.791
575.780;  -82.524; -767.112; -829.798
576.058;  241.014; 1589.889; 1004.200
576.336;  -18.081; -210.110; -129.801
576.614;  -61.724; -511.112; -340.798
576.891;   60.381; -711.115; -823.794
577.169;  530.638; -158.108; -285.805
577.447;  610.296;  169.893;  202.193
577.725;  282.505;  629.888;  854.201
578.003;   19.878;  -71.112; -371.798
578.280;   87.097; -208.104; -242.812
578.558;   63.855; -450.115; -422.793
578.836;  127.438; -210.114; -145.795
579.114;   43.599; -630.112; -670.797
579.391;   71.833;   -6.117;  -18.789
579.669;  -81.068; -595.114; -704.794
579.947;  171.493; -326.107; -127.806
580.224;  341.593; -692.107; -524.806
580.502;  331.247;  127.893;   76.193
580.779;   24.639;  -42.117;   75.210
581.057;  -70.869; -584.109; -470.804
581.334; -101.564; -726.102; -695.815
581.612;   32.235;   54.895;  511.190
581.889;  -34.275;  -83.101; -129.818
582.167;  -47.311; -298.099; -190.821
582.444;  -90.381; -845.102; -814.817
582.721;   95.945;  657.899;  715.183
582.999;   49.561; -326.100; -167.821
583.276;  573.511; -812.123; -713.779
583.553;  766.565; -364.102; -294.816
583.831;  257.119; -607.104; -631.812
584.108;   61.811;  349.892;  174.195
584.385;    9.661; -122.102;  -98.815
584.662;  -63.909; -651.111; -828.801
584.940;   31.990;  204.889;  204.199
585.217;  -25.581;  -73.113; -303.796
585.494;   28.974;   71.890;  118.198
585.771;  216.581; -250.109; -354.804
586.048;  505.694; -196.113;  -76.796
586.325;  321.543; -721.110; -773.801
586.602;   82.272;  230.896;  213.188
586.879;   -6.817; -499.100; -580.820
587.156;   36.010; -156.105; -331.810
587.433;  -40.758; -701.102; -667.817
587.710;   76.801;  152.888;  234.202
587.987;  296.091; -264.105; -236.811
588.264;  801.028;  315.888;  387.202
588.541; 1375.375;  -61.104;   26.187
588.818; 2770.808;   72.892;  171.196
589.095; 2403.645; -163.104; -174.812
589.371;  400.904; -459.109; -414.804
589.648;   16.922; -581.107; -437.807
589.925;   30.289; -517.114; -621.795
590.202;   18.926; -741.112; -607.798
590.478;   79.617; -166.105;  -73.811
590.755;  264.514; -241.108; -132.806
591.032; 2660.620; -741.110; -699.802
591.308; 3648.963; -732.094; -790.831
591.585; 1899.345; -573.110; -560.802
591.862;  167.619;-1056.102; -950.817
592.138;   65.512; -475.108; -474.805
592.415;  146.298; -486.104; -495.813
592.691; 1519.971;  460.896;  518.188
592.968; 1955.300; -208.098; -123.824
593.244;  939.441; -695.116; -595.790
593.521;   77.644; -105.102;  -42.817
593.797;  -18.210; -810.122; -720.780
594.074;  345.113; -611.096; -588.826
594.350;  689.924;  828.905;  729.172
594.626;  315.866; -303.111; -283.801
594.903;  109.245; -643.101; -645.817
595.179;  197.777;  243.896;  418.187
595.455;   18.173; -136.107; -150.807
595.731;   -2.922;  -19.103;  -38.814
596.008;  -44.165; -464.111; -434.800
596.284;   44.060; -187.100; -242.820
596.560;   64.794; -501.093; -493.833
596.836;  220.987; -173.105;  -70.810
597.112;  379.763; -582.108; -437.805
597.388;  294.636;  -49.097;  -48.826
597.665;  112.847;  437.887;  530.203
597.941;  -71.127; -572.089; -658.839
598.217;   10.548; -323.110; -293.802
598.493;  275.983;   61.891; -204.804
598.769;  537.579; -175.100;  -50.819
599.045;  342.691; -490.108; -562.806
599.321;   55.009; -193.100; -261.820
599.597;  155.832; -355.109; -476.804
599.872;  502.574;  409.896;  429.187
600.148;  396.337;  -61.097; -172.826
600.424;  303.370;   91.893;  202.193
600.700;  252.123; -170.107; -280.807
600.976;  118.956; -442.097; -464.825
601.252;  270.254; -226.109; -272.803
601.527;  215.800; -833.104; -840.813
601.803;  155.318; -453.105; -404.812
602.079;  172.179; -124.100; -118.819
602.354;  582.304; -620.092; -531.835
602.630;  850.119; -140.113; -482.796
602.906; 2408.750; -910.101; -863.818
603.181; 7172.271; -627.119; -534.786
603.457; 6090.360;   98.903; -278.826
603.733;  898.204; -605.120; -626.783
604.008;  980.559; -245.106; -164.810
604.284; 3193.021; -636.101; -580.817
604.559; 2815.705;   -3.112;  -42.799
604.835;  500.062; -163.105; -225.810
605.110;  445.239; -732.099; -892.821
605.385;  706.572;  224.907;  267.167
605.661;  691.026; -625.095; -729.829
605.936; 1245.541; -664.108; -737.806
606.211; 1063.685;  -17.103; -170.815
606.487;  219.559; -329.114; -376.794
606.762;    6.771; -791.119; -745.786
607.037;  -34.113; -501.105; -433.810
607.313;  -59.055; -589.096; -574.828
607.588;  -14.841; -375.106; -137.810
607.863;   38.574;  -28.101; -143.818
608.138;  200.522;  513.890;  516.198
608.413;   23.768; -576.099; -592.822
608.688;   67.912; -203.108; -267.805
608.964;  214.578; -509.106; -218.809
609.239;  267.810; -107.105; -212.810
609.514;  266.918;  281.895;  240.188
609.789;  675.397; -187.104; -716.812
610.064;  922.018; -435.096; -609.827
610.339;  937.929; -855.109; -799.804
610.614; 1268.984; -131.100; -315.820
610.889;  721.418;  215.895;  107.188
611.163;   56.418; -407.104; -591.812
611.438;   74.735;   81.886; -167.794
611.713;    4.671; -467.101; -499.817
611.988;   68.273; -144.101; -328.818
612.263;   -5.764; -771.102; -717.815
612.538;  225.894;  385.887;  251.204
612.812;  190.336; -832.100; -911.820
613.087;  141.398; -358.098; -338.823
613.362;  -45.927; -497.107; -557.807
613.637;   52.706;  261.897;  138.186
613.911;   -9.420; -256.092; -345.835
614.186;  121.046; -249.107; -292.807
614.460;  735.172; -842.081; -758.854
614.735;  844.371;  -55.087;  -17.843
615.010;  179.336;   43.912;  -82.841
615.284;  248.237;  360.892;  246.195
615.559;  377.153; -792.092; -955.835
615.833;  296.316;  -76.099;  -87.822
616.108;   18.315; -225.090; -390.837
616.382;  146.123;  274.913;  402.156
616.656;  155.340; -241.090; -232.837
616.931;  534.092; -785.099; -700.822
617.205; 1124.426; -973.104; -979.813
617.480; 1007.566;  -91.125;    6.225
617.754;  172.263; -396.125; -128.774
618.028;   12.434; -369.129; -382.768
618.302;   56.485;   73.892;  -25.805
618.577;  -47.293; -371.103; -518.815
618.851;  -66.624; -399.109; -600.803
619.125;  -59.510; -335.134; -378.759
619.399;  -51.249; -244.104; -374.813
619.673;  -48.577; -330.115; -515.792
619.947;  -44.137; -333.114; -448.795
620.222;  -11.358; -198.110; -204.801
620.496;   -2.998;  -47.121;  -96.782
620.770;   -5.081; -187.122;  -93.781
621.044;  212.085;  323.895;  346.190
621.318;  771.330; -653.120; -614.783
621.592;  701.453; -430.121; -409.783
621.866;  383.081; -476.112; -572.799
622.140;   21.292; -207.116; -356.791
622.413;   54.285;  138.889;  112.200
622.687;  -38.304; -746.101; -492.817
622.961;    3.935; -130.108; -143.805
623.235;  -65.939; -633.111; -661.800
623.509; -111.408; -816.105; -848.811
623.783;    5.344;  -12.107;   48.193
624.056;  -24.994; -254.120; -280.783
624.330;   56.175;   63.888;   -3.797
624.604;   57.664; -271.116; -355.790
624.877;   66.246;  180.890;   26.198
625.151;   47.158; -249.114; -238.794
625.425;  -41.572; -150.103; -283.814
625.698;  -46.710; -367.119; -374.785
625.972;  -90.777; -799.110; -765.802
626.245;   63.666;  685.884;  484.210
626.519;  -50.240; -426.120; -340.784
626.792;  -28.177; -192.107; -380.807
627.066;  -86.288; -485.122; -662.779
627.339;  -92.756; -736.110; -663.802
627.613;   22.859;  351.880;  148.216
627.886;   60.375;  187.891; -612.803
628.160;  -12.795;  312.880; -161.783
628.433; -104.107; -695.125; -703.775
628.706;  -86.140; -517.120; -615.784
628.979;   39.575;  296.876;  117.223
629.253;  -90.580; -785.119; -833.786
629.526;  388.853; -334.126; -253.772
629.799;  368.057; -641.123; -479.778
630.072;  174.886; -497.128; -516.769
630.346;  -54.684;-1115.116;-1080.790
630.619;  476.448; -467.107; -545.808
630.892;  651.562;  709.889;  593.200
631.165;  331.226;  790.896;  679.187
631.438;  -72.647;-1092.112;-1055.798
631.711;   56.585;  453.877;  257.221
631.984;  -55.814; -523.117; -624.789
632.257;  -67.092; -636.117; -681.789
632.530;  -53.835; -412.119; -433.785
632.803;   18.206; -109.115;    7.207
633.076;  -61.296; -360.123; -422.777
633.349;    0.265;  173.872;  121.231
633.622;  -45.161; -187.119; -240.785
633.895; -138.219; -903.120; -823.783
634.167;  -61.370; -496.126; -525.773
634.440;  -24.753;  -19.116; -137.792
634.713;   -5.481;  -22.119; -120.786
634.986;   80.555;  593.871;  453.233
635.258;  -73.696; -507.115; -597.793
635.531;   85.504;  742.882; -343.788
635.804;  -15.415; -303.117; -318.789
636.077;  -91.032; -830.116; -852.791
636.349;    4.402; -586.115; -474.793
636.622;  395.727; 1695.874; 1392.228
636.894;  253.010; -474.120; -909.784
637.167;  173.072; -836.127; -789.771
637.439;   30.418; -278.128; -213.770
637.712;  -49.296; -312.126; -293.772
637.984;  -96.156; -635.116; -707.791
638.257;  364.104;  515.877;  488.222
638.529;  591.744; -881.125; -924.776
638.802;  248.611; -508.128; -449.769
639.074; -113.882; -927.122; -952.781
639.346; -134.268; -942.135; -930.757
639.619;   -6.082;  -79.142; -319.744
639.891;   -5.288;  -83.122; -168.779
640.163;  -81.336; -689.122; -756.780
640.435;   35.141;  273.878;  103.220
640.708;   10.792;  -72.122; -132.780
640.980;  -36.181; -366.122; -362.781
641.252;  182.321;  -25.121;  -71.781
641.524; 1804.148;  580.879;  573.219
641.796; 1842.250;-1094.121; -907.782
642.068;  333.051; -191.121; -300.782
642.340;  -63.197; -486.121; -566.783
642.613;   30.055;  294.880;  323.217
642.885;  -96.093; -787.120; -878.783
643.157;  -36.291; -810.120; -658.784
643.428;   55.035;  170.880;  218.216
643.700;  -69.663; -498.120; -425.784
643.972;  -44.186;  -16.119; -133.785
644.244;  -85.809; -474.119; -559.785
644.516;  -46.132; -250.119; -114.786
644.788;   44.719;  662.881;  548.214
645.060;  -36.004;  -12.119; -124.786
645.332; -106.177; -525.118; -535.787
645.603;   28.175;  479.882;  342.213
645.875;  -77.248; -334.118; -369.787
646.147;  162.979; 1487.882; 1242.212
646.418;  -63.145; -931.117; -918.788
646.690;  161.832; -714.117; -715.789
646.962;   48.959; -413.117; -451.789
647.233;   -9.964;   15.883;   11.211
647.505; -112.187; -595.117; -475.790
647.776;   18.639;  328.884;  229.210
648.048;  -15.059; -248.116; -418.790
648.320;  -76.932; -752.116; -679.791
648.591; -156.780;-1055.116; -958.791
648.862;  -91.378; -505.116; -577.792
649.134;    6.773;  115.885;  198.208
649.405;  -41.250; -661.115; -618.792
649.677;  -47.398; -475.115; -598.793
649.948;   -6.021; -181.115; -296.793
650.219;   -9.119;  -37.115; -147.793
650.491;  -93.143; -431.114; -520.794
650.762; -128.466; -705.114; -731.794
651.033;  -83.014; -437.114; -424.795
651.304;  -91.412; -743.114; -728.795
651.576;  -59.360; -680.114; -645.795
651.847;  -45.859; -250.113; -140.796
652.118;  -29.307;  -32.113; -189.796
652.389; -108.380; -639.113; -722.796
652.660;  -47.578; -147.113;  -89.797
652.931; -146.626; -897.112; -871.797
653.202;  -82.675; -382.112; -541.798
653.473;  -75.123; -633.112; -533.798
653.744;  157.629; -595.112; -590.798
654.015;  136.956; -356.112; -303.799
654.286;  -68.642; -642.111; -663.799
654.557;  -51.316; -586.111; -521.799
654.828; -156.064;-1114.111;-1088.800
655.099;  -87.987; -404.111; -291.800
655.370;  -86.110; -427.111; -543.801
655.641; -117.408; -656.110; -714.801
655.911; -110.482; -618.110; -638.801
656.182;   39.045;  437.890;  387.198
656.453;   71.272;  830.890;  746.198
656.724;  -74.876; -466.110; -426.802
656.994;  -82.574; -553.109; -568.803
657.265; -116.498; -862.109; -873.803
657.536;  -70.471; -500.109; -377.804
657.806; -115.969; -561.109; -593.804
658.077; -144.667; -866.109; -950.804
658.347;  -79.590; -523.108; -598.805
658.618; -120.788; -646.108; -694.805
658.888;  -46.937;  -41.108;  112.195
659.159;  -87.710; -432.108; -548.806
659.429;  -29.008; -292.108; -349.806
659.700;    9.294; -435.107; -390.807
659.970;  -20.329; -370.107; -359.807
660.241;    7.722; -754.107; -921.807
660.511;  532.649; -147.107; -174.808
660.781;  106.426; -793.106; -748.808
661.052;  -55.847; -222.106; -381.808
661.322;  -18.145;   21.894;   -9.809
661.592;    4.256;  257.894;  148.191
661.862;  -66.842; -369.106; -382.810
662.133;  -97.590; -551.105; -502.810
662.403; -115.863; -770.105; -676.810
662.673;  -57.036; -256.105; -213.811
662.943;  -99.860; -612.105; -551.811
663.213;  -16.308;  -85.105;  -81.811
663.483;  -89.831; -593.104; -568.812
663.753;  -51.029; -194.104; -152.812
664.023;  -19.752;   68.896;  -32.813
664.293;  -58.001; -319.104; -126.813
664.563; -113.099; -694.104; -648.813
664.833; -128.947; -743.103; -608.814
665.103; -139.095; -730.103; -793.814
665.373; -118.443; -766.103; -806.814
665.643;  -87.042; -863.103; -918.815
665.913;   45.360; -534.103; -714.815
666.182;  135.662; -685.102; -719.816
666.452;  273.889;  -22.102;  -89.816
666.722;  -23.259; -724.102; -784.816
666.992; -128.433; -948.102; -921.817
667.261;  -94.306; -824.102; -808.817
667.531;  193.071;  134.899;   45.183
667.801;  533.848; -440.101; -412.818
668.070;  242.550;  714.899;  697.182
668.340;  -99.924; -883.101; -840.819
668.609;   84.703;  588.900;  301.181
668.879;  -73.670; -490.100; -558.819
669.149;  -84.443; -539.100; -516.820
669.418; -101.641; -698.100; -726.820
669.688;  -41.864; -482.100; -666.820
669.957;   80.162; -423.099; -546.821
670.226;  -25.261; -268.099; -331.821
670.496;  -88.059; -431.099; -635.822
670.765;  -85.532; -418.099; -501.822
671.034; -132.430; -872.099; -828.822
671.304;  -18.229;   55.902; -111.823
671.573; -142.427;-1085.098; -957.823
671.842;   88.375; -380.098; -294.823
672.112;   32.627; -692.098; -586.824
672.381;    8.704; -239.098; -214.824
672.650; -129.595;-1005.097;-1021.825
672.919;  -98.218; -631.097; -507.825
673.188;  -83.616; -681.097; -878.825
673.457; -159.239;-1101.097;-1143.826
673.726;  -65.637; -579.096; -646.826
673.995;  -36.161; -533.096; -479.826
674.265;  -51.859; -263.096; -333.827
674.534;    7.493; -183.096; -235.827
674.802;   11.370; -618.096; -703.828
675.071; 1028.672; -886.095; -801.828
675.340; 4174.898; -464.095; -339.828
675.609; 1355.250;  103.905;   82.171
675.878;   74.752; -949.095; -893.829
676.147;   26.179;  -26.095;   -8.829
676.416;   85.956; -210.094; -294.830
676.685;  765.657; 1000.906; -622.830
676.953;  106.784; -603.094; -452.831
677.222;  -44.764; -193.094; -273.831
677.491;  -37.787;  -24.094; -127.831
677.759;  -14.685;   11.907;  172.168
678.028;   -7.534; -279.093; -222.832
678.297;   -7.557;   71.907;  197.168
678.565; -136.855; -898.093; -944.833
678.834;  -63.878; -311.093; -268.833
679.102;  -77.501; -411.092; -391.834
679.371; -138.925; -898.092; -727.834
679.639; -127.798; -797.092; -786.834
679.908; -134.221; -794.092; -724.835
680.176; -156.244; -895.091; -941.835
680.445;  -85.942; -346.091; -352.835
680.713;  -24.440;  -58.091;  -23.836
680.982;  -95.589; -523.091; -525.836
681.250; -102.912; -578.091; -507.837
681.518; -112.735; -534.090; -751.837
681.787;  -14.333; -204.090; -167.837
682.055;  -75.981; -490.090; -422.838
682.323; -148.705; -993.090; -992.838
682.591;   39.547; -216.090; -538.838
682.859;   96.199;    9.911;  -35.839
683.128;    5.376;  232.911;  497.161
683.396; -163.997;-1102.089;-1122.840
683.664;  -42.021; -241.089;   21.160
683.932;    6.231;  144.911;  -76.840
684.200;  -96.167; -576.088; -320.841
684.468;  -35.215;  -73.088; -124.841
684.736;  -39.838; -214.088; -175.841
685.004; -128.037;-1024.088; -982.842
685.272;  -48.460; -880.088; -774.842
685.540;  -55.208; -499.087; -557.843
685.808;  -88.256; -651.087; -682.843
686.076; -102.554; -894.087; -969.843
686.343;  -59.878; -601.087; -815.844
686.611;   47.649; -195.087; -224.844
686.879;  453.676; -530.086; -553.844
687.147; 3408.553; -483.086; -480.845
687.414;  976.530;  -12.086; -169.845
687.682;    3.481; -658.086; -757.846
687.950;  325.108;  259.915;  263.154
688.217;   12.460; -792.085; -760.846
688.485;    2.162; -632.085; -636.847
688.753;  562.414;  -11.085; -102.847
689.020;  179.015; -820.085; -851.847
689.288; -106.558; -853.084; -787.848
689.555;  -44.531; -195.084; -148.848
689.823;  -49.304; -241.084; -345.849
690.090;  -92.827; -546.084; -651.849
690.358; -153.651; -877.084; -897.849
690.625;    8.776;  120.917;   45.150
690.892;  -88.722; -403.083; -369.850
691.160;  -13.595;   72.917;  -35.850
691.427;   -6.818;  141.917;  130.149
691.694; -124.716; -855.083; -929.851
691.962; -146.040;-1177.082;-1060.852
692.229;   10.887;  127.918;   56.148
692.496;   83.664;  130.918;  -49.852
692.763;   13.441; -164.082; -201.853
693.031;  -58.507; -739.082; -716.853
693.298;  -45.956; -509.081; -368.853
693.565;  314.121; -155.081; -163.854
693.832; 1353.723;   -5.081;   -9.854
694.099;  157.100; -643.081; -642.855
694.366;  -67.298; -882.081; -896.855
694.633;  -61.022; -920.080; -633.855
694.900;  740.430; 4367.920; -114.856
695.167;  437.057; -214.080; -380.856
695.434;  106.684; -646.080; -623.856
695.701;  181.411;  121.921;  -61.857
695.968;  475.462; -365.079; -361.857
696.234;  951.714; -415.079; -646.858
696.501; 9893.866; -776.079; -614.858
696.768; 5167.193; -554.079; -617.858
697.035;  287.295; -632.078; -667.859
697.302;   34.496; -448.078; -552.859
697.568;   13.598; -458.078; -497.859
697.835;  -49.700; -683.078; -624.860
698.102;  -22.748; -498.078; -407.860
698.368;   61.779;  384.923;  396.139
698.635;  -46.320;  -47.077; -424.861
698.901;  -16.293; -240.077; -348.861
699.168;   64.634; -534.077; -456.862
699.435;   78.786;  -72.077;  -13.862
699.701; -113.612; -868.076; -764.862
699.968;    6.064;  144.924; -441.863
700.234;  -89.459; -783.076; -822.863
700.500;  -65.832; -448.076; -539.864
700.767;   -0.055;   -1.075;   26.136
701.033; -119.178;-1015.075; -963.864
701.299;  -54.827; -450.075; -483.865
701.566;  109.550;  950.925;  763.135
701.832;   28.227;  -31.075;  -76.865
702.098;  -97.946;-1054.074;-1034.866
702.365;  -92.719;-1098.074;-1030.866
702.631;  -28.892;-1038.074;-1063.867
702.897; 1347.859; -765.074; -676.867
703.163; 2297.411;  348.926;  254.133
703.429;  146.938; -256.073; -273.868
703.695;  -36.610; -796.073; -792.868
703.961;    8.442; -214.073; -210.868
704.227;  -62.682; -630.073; -725.869
704.493;  109.870;  613.927;  510.131
704.759;  -28.103; -565.072; -540.870
705.025;   20.649; -203.072; -194.870
705.291;  -25.449; -666.072; -562.870
705.557;  186.677;  719.928;   34.129
705.823;    4.879; -742.072; -694.871
706.089;  123.906; -307.071; -326.871
706.355;  329.483; -315.071; -244.872
706.620; 5105.685; -776.071; -729.872
706.886; 7496.436; -309.071; -362.873
707.152;  731.013; -818.070; -973.873
707.418;  -18.235;-1153.070;-1186.873
707.683;  -11.783; -550.070; -530.874
707.949;  -43.056; -547.070; -578.874
708.215;  -15.855; -129.070; -207.874
708.480;  -22.503; -520.069; -420.875
708.746;   88.324;   68.931;   28.125
709.011;  -70.899; -578.069; -612.876
709.277;  -76.747; -538.069; -543.876
709.542;  -48.146; -428.069; -387.876
709.808;   -0.244;  -59.068;   89.123
710.073;  -77.992; -577.068; -695.877
710.339;  -39.840; -242.068; -228.877
710.604;   71.037; -780.068; -845.878
710.869;  330.513; -277.068; -366.878
711.135;  -66.135; -715.067; -628.879
711.400;  -89.283; -507.067; -608.879
711.665;  -63.681; -404.067; -479.879
711.931; -117.254; -661.067; -677.880
712.196; -120.453; -876.067; -954.880
712.461;  110.049; -402.066; -490.880
712.726;  154.926; -727.066; -771.881
712.991;  -97.072; -647.066; -664.881
713.256;  -57.920; -350.066; -332.882
713.521;  -61.369; -417.065; -381.882
713.787;  -65.717; -454.065; -472.882
714.052;  -46.015; -214.065; -400.883
714.317; -102.513;-1045.065; -981.883
714.581;  954.889; -374.065; -268.883
714.846; 1319.866; -822.064; -888.884
715.111;  116.367;  261.936;  257.116
715.376;  -17.206;  -86.064; -223.885
715.641;   -5.729; -365.064; -367.885
715.906;  293.123;   15.936; -551.885
716.171;  142.525;  221.937;  209.114
716.436;   43.501;  -78.063; -104.886
716.700; -110.722; -818.063; -692.886
716.965; -128.270; -794.063; -807.887
717.230;  -76.593; -339.063; -392.887
717.494;  -26.766;  -40.062; -134.888
717.759; -106.140; -784.062; -640.888
718.024;  -14.938;  269.938;  250.112
718.288;   83.114;  685.938;  395.111
718.553; -148.634; -803.062; -977.889
718.817; -145.232; -883.061; -899.889
719.082;  -27.931; -115.061; -125.890
719.346; -146.654;-1000.061; -947.890
719.611;  -44.202; -300.061; -255.891
719.875;  -95.100; -568.060; -537.891
720.140;  -60.148; -453.060; -603.891
720.404;   46.703; -136.060; -249.892
720.668;  872.480; -475.060; -411.892
720.933;  334.182;  146.940;  137.108
721.197;  -94.841; -667.059; -600.893
721.461; -137.889; -851.059; -826.893
721.725;  -21.738;  -21.059; -250.894
721.990;  -57.561; -284.059; -204.894
722.254;  -31.909;  -26.059; -108.894
722.518;  -82.382; -286.058; -442.895
722.782;  -85.980; -743.058; -594.895
723.046;  136.071;  614.942;  570.105
723.310;   26.323;  374.942;  210.104
723.574; -109.550; -654.058; -614.896
723.838; -102.223; -576.057; -642.897
724.102;  -60.996; -226.057; -239.897
724.366; -142.170;-1032.057; -978.897
724.630;  -98.418; -749.057; -571.898
724.894;  -93.016; -722.057; -514.898
725.158;  -15.089;   38.944; -295.898
725.422;  -54.937; -394.056; -327.899
725.685;  -74.535; -441.056; -349.899
725.949;  -88.559; -566.056; -519.900
726.213;  -86.207; -732.056; -811.900
726.477;  173.070;-1020.055; -933.900
726.740;  149.072; -274.055; -104.901
727.004;  316.049; -384.055; -510.901
727.268; 3146.875; -442.055; -400.901
727.531;  881.227; -961.055; -775.902
727.795;  -51.871; -713.054; -673.902
728.059;  -56.119; -552.054; -557.903
728.322;  -75.242; -841.054; -669.903
728.586;   35.134; -692.054; -701.903
728.849;  -80.264; -695.053; -756.904
729.112; -111.037; -812.053; -912.904
729.376; -121.560; -959.053; -905.904
729.639;  -86.533; -536.053; -536.905
729.903; -103.157; -733.053; -699.905
730.166;  -45.605; -437.052; -399.906
730.429;  -32.328; -317.052; -468.906
730.693;  -71.551; -355.052; -894.906
730.956;  207.551;  810.948;  651.093
731.219;  708.152; -310.052; -103.907
731.482;  119.654;-1003.051; -894.907
731.745;  115.606; -794.051; -935.908
732.009;   18.858;  -30.051;   50.092
732.272; -110.165; -904.051; -771.909
732.535;  -56.239; -300.051; -310.909
732.798; -158.712;-1083.050;-1166.909
733.061;  -69.660; -430.050; -456.910
733.324;    2.592;   31.950; -180.910
733.587;   68.069;  290.950;  365.090
733.850;  -69.455; -973.049;-1050.911
734.113;   25.872;   33.951;   32.089
734.376;    2.899; -328.049; -447.912
734.639;  222.651; 1188.951; 1011.088
734.901;   67.853; -180.049; -402.912
735.164;  515.754; -883.048; -837.913
735.427; 1351.131; -166.048; -355.913
735.690;  115.633; -205.048; -234.913
735.952;  -24.540; -923.048; -925.914
736.215;  -32.338;-1113.048;-1009.914
736.478;   46.614; -771.047; -774.915
736.740;  206.365;   33.953;  129.085
737.003;  674.092; -658.047; -672.915
737.266; 4241.319;  -94.047;   46.084
737.528;  449.521; -682.047; -660.916
737.791;  309.023; -316.046; -327.916
738.053;  750.149;  465.954;  649.083
738.316;10376.426; -162.046; -136.917
738.578; 7540.353; -770.046; -736.918
738.841;  427.180; -382.046; -446.918
739.103;  149.857; -875.045; -777.918
739.365;  507.608;   79.955;  -69.919
739.628;   -8.215; -884.045; -805.919
739.890;  -31.588; -758.045; -710.919
740.152;  -46.486; -692.044; -754.920
740.414;  -16.109; -408.044; -359.920
740.677;  -39.633; -785.044; -634.921
740.939;  -39.706; -587.044; -487.921
741.201;  273.621; -432.044; -572.921
741.463;   51.723; -689.043; -745.922
741.725;    9.050;  -21.043; -199.922
741.987;   43.076;  220.957;  116.078
742.249;   12.528; -751.043; -859.923
742.511;  209.455; -703.043; -794.923
742.773;   15.182; -546.042; -546.924
743.035;  130.909;  796.958;  533.076
743.297;  -46.590; -963.042;-1013.924
743.559;  744.937; -278.042; -262.925
743.821;   74.239; -735.042; -744.925
744.083;    4.466;  -44.041; -149.925
744.345;  -87.657; -869.041; -892.926
744.607;   28.144;   75.959;  122.074
744.868;  -61.054; -490.041; -554.927
745.130; -109.777; -994.041;-1008.927
745.392;   46.925;   -1.040;  -44.927
745.653;   -7.423; -411.040; -378.928
745.915;  149.878;  896.960;  631.072
746.177;   55.780;   35.960;  -43.928
746.438;   -1.568; -428.040; -543.929
746.700;  -51.041; -947.039; -988.929
746.961;   -1.539; -659.039; -740.930
747.223;  130.838; -190.039;  -74.930
747.484;   87.739; -391.039; -471.930
747.746;  144.041;  -23.038; -106.931
748.007;   98.793; -647.038; -689.931
748.269;  290.895; -468.038; -440.931
748.530;  499.347; -852.038; -638.932
748.791;  263.623; -354.038; -420.932
749.053;  449.250;  286.963;  163.067
749.314;  474.502; -236.037; -169.933
749.575;  532.229; -945.037; -905.933
749.836;  847.556; -217.037;   86.066
750.098; 2432.357;  -60.037;  -21.934
750.359;36842.109;  414.964;  555.066
750.620; 9679.886; -121.036; -220.935
750.881; 1026.738; -585.036; -513.935
751.142; 1371.590; -950.036; -938.936
751.403;16397.391; -789.036; -705.936
751.664; 7560.968;-1034.035; -999.936
751.925;  475.570; -175.035; -262.937
752.186;  290.522; -298.035; -278.937
752.447;  125.449; -590.035; -445.937
752.708;   39.850; -532.035; -648.938
752.969;  -10.123; -566.034; -576.938
753.230;   -5.696; -777.034; -672.939
753.491;   12.356; -650.034; -631.939
753.751;   63.333;  109.966;   19.061
754.012;   92.134;  258.967;  181.060
754.273;   71.136; -174.033;  -71.940
754.534;    3.363; -487.033; -580.940
754.794;  -89.110; -926.033; -911.941
755.055;  133.942; 1051.967;  881.059
755.316;  -38.357; -700.032; -566.942
755.576;  -25.655; -606.032; -576.942
755.837;  -55.553; -527.032; -695.942
756.097;  -47.976; -530.032; -564.943
756.358;  -72.274; -725.032; -770.943
756.618;  -51.223; -705.031; -641.943
756.879;    3.329; -254.031; -349.944
757.139; -138.594;-1098.031;-1116.944
757.400;  -64.767; -538.031; -553.945
757.660;  -30.215; -365.031; -401.945
757.920;    9.137; -266.030; -228.945
758.181;  -14.162; -468.030; -351.946
758.441; -101.660; -870.030; -809.946
758.701;  -29.283; -308.030; -215.946
758.961;  -14.781; -220.030; -278.947
759.222;  -64.829; -574.029; -502.947
759.482;  -86.178; -683.029; -723.948
759.742;  -79.601; -706.029; -547.948
760.002;    0.451;  -83.029; -143.948
760.262;   14.153;   50.972;  182.051
760.522;  -48.520; -498.028; -574.949
760.782;  -59.569; -738.028; -612.949
761.042;  -37.192; -618.028; -573.950
761.302;   44.235;   55.972;  -18.950
761.562;   51.887; -164.027; -154.951
761.822;   81.964; -710.027; -551.951
762.082;  -35.485;-1104.027;-1093.951
762.342;   49.817; -328.027; -403.952
762.601;   87.344; -567.027; -506.952
762.861;  358.471; -281.026; -207.952
763.121;  393.298; -406.026; -411.953
763.381; 7033.299; -499.026; -485.953
763.640; 8107.476; -139.026; -307.954
763.900;  352.803; -242.026; -203.954
764.160;   84.305; -458.025; -491.954
764.419;  -23.668; -726.025; -782.955
764.679;  -72.817; -795.025; -726.955
764.939;   -6.865; -124.025; -210.955
765.198;  -80.338; -608.025; -563.956
765.458;  -82.711; -710.024; -612.956
765.717;  -94.859; -454.024; -590.957
765.976;  -76.558; -428.024; -411.957
766.236;  -76.656; -475.024; -610.957
766.495;   20.146;  260.977;   73.042
766.755;  -84.177;-1090.023; -987.958
767.014;    4.975; -594.023; -665.958
767.273;  -54.874; -373.023; -397.959
767.533;  -55.272; -228.023; -307.959
767.792;  -28.695; -151.022; -188.960
768.051;  -52.193; -228.022; -276.960
768.310;  -89.591; -546.022; -650.960
768.569;   -3.665; -161.022;    4.039
768.828;  -25.788; -285.022; -363.961
769.088; -124.561;-1050.021; -942.961
769.347;  -87.609; -755.021; -599.962
769.606;  -97.057; -876.021; -857.962
769.865; -119.955;-1016.021;-1033.963
770.124;   -4.254; -411.021; -336.963
770.383;  -46.727; -778.020; -910.963
770.641;   -8.475; -398.020; -400.964
770.900;  -68.073; -953.020; -846.964
771.159;  -55.196; -851.020; -951.964
771.418;  -26.895; -917.020; -779.965
771.677;  112.032; -224.019; -293.965
771.936;  135.659; -794.019; -865.966
772.194; 1964.911; -465.019; -437.966
772.453;10652.038; -213.019; -391.966
772.712;  765.289;  416.982;  329.033
772.970;  111.641;   32.982;   63.033
773.229;   70.368;  -22.018;  102.033
773.488;  -95.655; -814.018; -770.968
773.746;   46.247;  296.982;  335.032
774.005;   -0.202;  190.983;  -22.969
774.263;   -2.850;  243.983;  177.031
774.522;  -48.373; -422.017; -548.969
774.780;  -75.896; -484.017; -417.970
775.039; -102.719; -551.017; -531.970
775.297;  -28.343; -135.016; -351.970
775.555; -114.266; -489.016; -612.971
775.814; -122.764; -618.016; -570.971
776.072; -125.687; -749.016; -740.971
776.330; -106.635; -630.016; -520.972
776.589; -121.084; -703.015; -721.972
776.847; -126.682; -645.015; -624.973
777.105; -168.980;-1016.015;-1032.973
777.363;  -87.303; -459.015; -454.973
777.621; -131.501; -660.015; -717.974
777.879;  -30.500;  -42.014;   32.026
778.138; -109.648; -554.014; -717.974
778.396; -106.321; -585.014; -526.975
778.654; -164.769;-1015.014; -970.975
778.912;  -62.517; -269.014; -371.976
779.170; -134.491; -880.013; -803.976
779.427; -145.389; -922.013; -897.976
779.685; -144.262; -880.013; -832.977
779.943;  -91.785; -654.013; -593.977
780.201; -164.858; -964.012; -883.978
780.459; -121.531; -651.012; -610.978
780.717;  -99.055; -440.012; -390.978
780.974; -111.353; -449.012; -490.979
781.232;  -82.001; -358.012; -338.979
781.490;  -82.524; -551.011; -472.979
781.747; -102.422; -555.011; -476.980
782.005;    6.654;  462.989;  254.020
782.263; -166.994; -542.011;-1004.981
782.520;  -90.467; -326.011; -501.981
782.778; -169.965;-1013.010;-1051.981
783.035; -165.988; -962.010; -938.982
783.293;  -55.387; -248.010; -206.982
783.550;  -54.785; -134.010; -198.982
783.808; -130.308; -764.010; -776.983
784.065; -166.381; -745.009; -874.983
784.322;  -49.179;   25.991;  -86.984
784.580; -139.178; -915.009; -771.984
784.837;  -86.576; -392.009; -466.984
785.094; -138.574; -783.009; -762.985
785.352;  -78.897; -304.008; -404.985
785.609; -110.745; -934.008; -839.985
785.866;  -81.169; -345.008; -401.986
786.123;  -79.467; -639.008; -583.986
786.380;  -85.565; -665.008; -604.987
786.637;  -54.288; -225.007; -380.987
786.895;  -16.261; -456.007; -543.987
787.152;  -41.860; -135.007; -267.988
787.409;  -55.408; -123.007; -225.988
787.666;  -98.581; -299.006; -378.988
787.923; -119.704; -616.006; -695.989
788.179; -100.727; -551.006; -584.989
788.436;  -96.501; -585.006; -585.990
788.693;  -34.624;  -92.006;  -87.990
788.950;  137.503; -125.005; -112.990
789.207;  224.555; -381.005; -372.991
789.464;  -50.143; -161.005; -301.991
789.720;  -29.517;  150.995;  110.009
789.977; -170.565;-1003.005; -671.992
790.234;  -43.088;   44.996;  -66.992
790.490; -153.011; -884.004;-1031.993
790.747;  -18.809;  -85.004;   22.007
791.004;  -17.232; -426.004; -348.993
791.260;  -75.931; -430.004; -560.994
791.517; -110.354; -843.003; -788.994
791.773;  -53.827; -379.003; -342.994
792.030; -105.775; -596.003; -660.995
792.286; -105.373; -686.003; -636.995
792.543;  -19.097;  -74.002; -159.995
792.799;  -60.195; -584.002; -382.996
793.055; -154.368;-1179.002;-1210.996
793.312;  -91.666; -827.002; -816.997
793.568;  -75.689; -746.002; -599.997
793.824;   -6.613; -226.001; -284.997
794.081;   12.889; -447.001; -508.998
794.337;   49.741; -664.001; -561.998
794.593; 1239.793; -319.001; -271.999
794.849; 6509.770; -746.001; -772.999
795.105;  339.146; -270.000; -261.999
795.361;    1.498; -490.000; -457.000
795.617;  -66.000; -875.000; -945.000
795.873;  -47.575; -360.000; -407.000
796.129;  -34.325; -368.000; -306.000
796.385;  -17.725; -124.000; -156.000
796.641;   64.375;  412.000;  550.000
796.897;  -97.900; -666.000; -635.000
797.153;   54.525;  453.000;  357.000
797.409;  -93.875; -785.000; -868.000
797.665;  -86.975; -625.000; -732.000
797.921;  -95.700; -775.000; -762.000
798.176;  -62.400; -744.000; -747.000
798.432;  -53.300; -824.000; -596.000
798.688;  -72.925;-1174.000;-1078.000
798.943;   78.800; -165.000; -147.000
799.199;  -13.875;-1005.000; -959.000
799.455;  234.075;  369.000;  316.000
799.710;  106.525; -813.000; -380.000
799.966;  281.900; -162.000; -160.000
800.221;  442.675; -638.000; -721.000
800.477; 9850.600; -743.000; -710.000
800.732; 9325.925; -773.000; -800.000
800.988;  618.125;  205.000;  -19.000
801.243; 1545.800; -454.000; -344.000
801.498; 7132.750; -814.000; -739.000
801.754;  419.600; -289.000; -163.000
802.009;   67.500; -257.000; -335.000
802.264;  -81.525; -967.000;-1033.000
802.520;   14.000;  222.000;   -3.000
802.775;  -52.075; -524.000; -359.000
803.030;   41.625;  395.000;  356.000
803.285; -123.450; -840.000; -903.000
803.540;  -61.850; -686.000; -699.000
803.795;  -37.900; -648.000; -583.000
804.051;  -53.650; -279.000; -346.000
804.306;   16.500;  168.000;  128.000
804.561;  150.625;  451.000;  362.000
804.816;  128.000;  714.000;  861.000
805.071;   -4.375; -185.000; -280.000
805.325;  233.100; -257.000; -427.000
805.580; -102.750; -841.000; -877.000
805.835;  -19.325; -204.000; -297.000
806.090;  -78.200; -760.000; -676.000
806.345;  -23.800; -344.000; -264.000
806.600;  -41.975; -549.000; -632.000
806.854;  -44.325; -408.000; -538.000
807.109;  -25.550; -493.000; -577.000
807.364;  -14.200; -407.000; -328.000
807.618;  -12.725; -415.000; -381.000
807.873;   48.200; -470.000; -494.000
808.128;  102.275; -257.000; -518.000
808.382;   92.400; -224.000; -332.000
808.637;   69.975; -440.000; -511.000
808.891;  172.775; -257.000; -180.000
809.146;   88.800; -902.000; -794.000
809.400;  251.350; -848.000; -923.000
809.654;  319.775; -779.000; -551.000
809.909;  490.825; -841.000; -927.000
810.163; 6476.300; -813.000; -651.000
810.418;17901.525; -940.000; -861.000
810.672; 1032.850; -685.000; -690.000
810.926;  688.550; -993.000; -973.000
811.180; 1325.975; -439.000; -372.000
811.434;29785.775;  240.000;  135.000
811.689;12853.975; -231.000; -365.000
811.943;  645.975; -936.000; -953.000
812.197;  302.025; -893.000; -671.000
812.451;  121.650; -379.000; -514.000
812.705;  -35.075; -809.000; -619.000
812.959;   -8.050; -263.000; -388.000
813.213;   -6.125; -283.000; -209.000
813.467;   73.025;  470.000;  253.000
813.721; -102.400; -764.000; -792.000
813.975; -109.850; -826.000; -877.000
814.229;   27.050;  430.000;  353.000
814.482;  -81.425; -517.000; -566.000
814.736; -114.125; -766.000; -744.000
814.990; -128.100; -779.000; -872.000
815.244;  -47.675; -228.000; -285.000
815.497; -105.800; -636.000; -601.000
815.751;  -21.075; -141.000;   82.000
816.005;  -87.675; -470.000; -586.000
816.258;  -64.400; -510.000; -363.000
816.512; -119.875; -693.000; -610.000
816.766;   -4.025;  121.000;  157.000
817.019;   19.400;  148.000;  149.000
817.273; -127.650;-1000.000; -802.000
817.526;  -38.675; -206.000; -173.000
817.779;  -45.225;-1049.000; -960.000
818.033;  -58.600; -693.000; -807.000
818.286; -120.375; -725.000; -792.000
818.540;  -84.750; -403.000; -403.000
818.793;  -82.000; -402.000; -489.000
819.046; -101.325; -582.000; -520.000
819.299;  -58.975; -157.000; -166.000
819.553; -102.850; -552.000; -592.000
819.806; -155.350;-1016.000; -838.000
820.059;  -57.500; -334.000; -354.000
820.312;    2.450;  152.000;  185.000
820.565;  -18.625;  110.000;  -27.000
820.818;  -54.825;  -59.000; -173.000
821.071; -170.350;-1041.000; -957.000
821.324; -112.050; -536.000; -540.000
821.577;  -96.275; -457.000; -483.000
821.830;  -72.425; -270.000; -172.000
822.083; -121.825; -733.000; -288.000
822.336;  -54.975; -261.000; -167.000
822.589; -135.625; -805.000; -688.000
822.842; -146.150; -875.000; -770.000
823.094; -180.175;-1076.000;-1114.000
823.347; -142.000; -925.000; -729.000
823.600;   20.225;  402.000;  187.000
823.853;  -51.925; -311.000; -267.000
824.105;  -71.750; -331.000; -575.000
824.358; -109.725; -617.000; -716.000
824.611;   13.225;  234.000;   40.000
824.863;  -48.100; -612.000; -591.000
825.116;   32.075;  -33.000;   27.000
825.368;   61.200; -366.000; -372.000
825.621;  162.950; -186.000; -240.000
825.873;   78.375; -704.000; -737.000
826.126;  535.400; -669.000; -641.000
826.378;11310.150; -389.000; -505.000
826.630; 2996.975; -890.000; -898.000
826.883;   31.650; -754.000; -693.000
827.135;   25.525; -279.000; -270.000
827.387; -115.550; -893.000; -839.000
827.639;  -34.400;  -86.000;   32.000
827.892; -125.525; -742.000; -582.000
828.144; -145.375; -848.000; -804.000
828.396;  -27.800;  104.000;  -80.000
828.648;  -93.975; -440.000; -333.000
828.900; -153.150; -702.000; -795.000
829.152; -114.050; -684.000; -683.000
829.404;  -74.975; -215.000; -267.000
829.656;  -43.725;  321.000;  214.000
829.908;  -29.725;  393.000;  229.000
830.160; -178.225;-1064.000;-1047.000
830.412;  -84.975; -481.000; -430.000
830.664; -132.375; -557.000; -665.000
830.916;  -87.600; -268.000; -206.000
831.167; -185.775;-1073.000; -951.000
831.419; -100.375; -623.000; -566.000
831.671; -148.825; -764.000; -809.000
831.923;  -95.325; -311.000; -447.000
832.174;  -86.775; -273.000; -331.000
832.426; -124.375; -493.000; -582.000
832.678; -182.500;-1043.000;-1091.000
832.929; -156.900; -947.000; -935.000
833.181;  -66.225; -575.000; -677.000
833.432;  -51.575;  -59.000; -186.000
833.684;  -22.500;  112.000;  -27.000
833.935; -114.325; -610.000; -566.000
834.187; -139.175; -829.000; -823.000
834.438;  -41.400;  -58.000;  -25.000
834.689;  -61.225; -255.000; -123.000
834.941;  -66.175; -343.000; -244.000
835.192; -103.650; -590.000; -533.000
835.443; -102.000; -419.000; -506.000
835.695;  -16.425;  138.000;  -16.000
835.946;  -86.375; -608.000; -378.000
836.197; -116.175; -599.000; -622.000
836.448;  -94.650; -528.000; -395.000
836.699;  -62.825; -253.000; -341.000
836.950;  -18.275;   72.000;    7.000
837.201; -152.850;-1003.000; -987.000
837.452;  -43.275; -356.000; -170.000
837.703; -110.875; -791.000; -737.000
837.954;  -32.425; -205.000; -365.000
838.205;  -90.450;-1029.000;-1008.000
838.456;  162.400; -196.000; -282.000
838.707;    7.725; -423.000; -519.000
838.958;    6.300; -634.000; -647.000
839.209;  276.925;   18.000;   40.000
839.460;  109.275; -439.000; -201.000
839.710;  163.325; -135.000; -297.000
839.961;  400.125;  730.000;  612.000
840.212;  341.225; -382.000; -497.000
840.462; 1096.175; -328.000; -277.000
840.713;17424.875; -571.000; -536.000
840.964; 7562.000;  -62.000; -143.000
841.214;  518.725; -384.000; -624.000
841.465;  567.950; -214.000; -141.000
841.715;  541.250; -417.000; -380.000
841.966;  694.400; -746.000; -685.000
842.216; 8888.475; -330.000; -431.000
842.466;36437.025; -169.000; -313.000
842.717; 2159.125; -964.000; -952.000
842.967;  327.075; -635.000; -641.000
843.217;  289.575;   20.000;   28.000
843.468;   78.350; -104.000; -132.000
843.718;  -24.550; -718.000; -726.000
843.968;  -90.800; -837.000; -765.000
844.218;   25.775; -315.000; -262.000
844.469;  -58.225; -577.000; -561.000
844.719; -115.500; -537.000; -682.000
844.969;  -99.425; -550.000; -580.000
845.219; -140.750; -814.000; -862.000
845.469;  -78.225; -392.000; -342.000
845.719; -141.275; -792.000; -884.000
845.969;  -21.475;  119.000;  174.000
846.219; -125.325; -738.000; -720.000
846.469;   16.250;  464.000;  432.000
846.718;  -61.325; -115.000;   31.000
846.968; -142.900; -827.000; -827.000
847.218;  -53.075; -224.000; -371.000
847.468;  -23.150; -586.000; -555.000
847.718; -154.650; -827.000; -798.000
847.967; -133.450; -826.000; -915.000
848.217;  -87.750; -449.000; -569.000
848.467;  -68.075; -405.000; -376.000
848.716; -105.925; -708.000; -725.000
848.966;    1.400; -372.000; -358.000
849.215;  -56.650; -428.000; -419.000
849.465;  -97.800; -785.000; -615.000
849.714; -142.900;-1132.000;-1150.000
849.964;  -65.000; -551.000; -613.000
850.213;  -19.175; -393.000; -355.000
850.463;   64.575;  137.000;  340.000
850.712;    4.300; -542.000; -567.000
850.961;   22.500; -739.000; -678.000
851.211;   87.075; -513.000; -504.000
851.460;  142.300; -635.000; -650.000
851.709;  547.725;  -25.000;   18.000
851.958; 9782.400; -912.000; -750.000
852.208;12981.975; -859.000; -879.000
852.457;  497.300; -181.000;  -13.000
852.706;   68.800; -791.000; -823.000
852.955;    0.400; -507.000; -528.000
853.204;  -78.325; -521.000; -461.000
853.453;  -90.600; -418.000; -458.000
853.702; -136.975; -660.000; -750.000
853.951; -105.550; -532.000; -520.000
854.200; -126.250; -613.000; -562.000
854.449; -140.225; -695.000; -661.000
854.698; -108.000; -340.000; -279.000
854.946;  -78.850; -181.000; -284.000
855.195; -154.225; -843.000; -868.000
855.444; -100.175; -395.000; -420.000
855.693; -126.650; -345.000; -432.000
855.941; -110.750; -387.000; -516.000
856.190;  -63.425; -256.000; -382.000
856.439; -137.100; -652.000; -703.000
856.687;  -58.175;  -99.000;  -72.000
856.936; -123.075; -621.000; -323.000
857.184; -187.800;-1067.000;-1020.000
857.433; -109.050; -423.000; -512.000
857.681; -172.400; -989.000; -953.000
857.930;  -89.400; -282.000; -433.000
858.178; -166.375; -856.000; -929.000
858.427; -155.350; -802.000; -781.000
858.675; -128.550; -377.000; -544.000
858.923; -109.025; -527.000; -819.000
859.172; -194.750;-1094.000;-1070.000
859.420;  -83.750; -339.000; -239.000
859.668; -145.775; -624.000; -628.000
859.916;  -41.025;  109.000;  115.000
860.164; -132.425; -699.000; -603.000
860.413;  290.025; -878.000; -696.000
860.661;  253.075; -709.000; -577.000
860.909;  -86.600; -339.000; -325.000
861.157;  -99.975; -277.000; -444.000
861.405; -133.400; -534.000; -670.000
861.653;    0.825;  310.000;  310.000
861.901;  184.925; -543.000; -613.000
862.149;   37.350; -801.000; -824.000
862.396;  -84.075; -297.000; -187.000
862.644;  -88.475; -368.000; -347.000
862.892;  -47.750;   98.000;  138.000
863.140; -120.900; -549.000; -530.000
863.388; -176.175; -815.000; -759.000
863.635; -134.950; -642.000; -601.000
863.883;  -16.725;  231.000;  190.000
864.131; -109.775; -288.000; -357.000
864.378; -144.625; -675.000; -540.000
864.626; -101.075; -347.000; -415.000
864.873; -128.275; -556.000; -505.000
865.121; -152.125; -714.000; -799.000
865.368;  -50.750; -173.000;   75.000
865.616;  -47.500;  -33.000;  -40.000
865.863;  -76.975; -462.000; -506.000
866.111; -113.975; -795.000; -824.000
866.358;   27.700; -426.000; -420.000
866.605; 1990.925;  -64.000; -804.000
866.853; 2173.050; -621.000; -537.000
867.100;  -43.450; -728.000; -775.000
867.347; -101.125; -672.000; -611.000
867.594;  -92.875; -740.000; -714.000
867.841;   89.475;   97.000;   17.000
868.089; -147.025; -746.000; -698.000
868.336; -108.975; -477.000; -420.000
868.583; -143.200; -637.000; -741.000
868.830;  -53.425; -131.000; -170.000
869.077; -160.825; -859.000; -787.000
869.324; -141.200; -502.000; -458.000
869.571; -136.825; -398.000; -430.000
869.818; -136.100; -485.000; -439.000
870.065;  -99.725; -439.000; -513.000
870.311; -112.925; -456.000; -542.000
870.558; -114.125; -332.000; -311.000
870.805;  -83.900; -320.000; -384.000
871.052; -113.950; -494.000; -369.000
871.298;  -60.575; -204.000; -131.000
871.545;  -68.650; -151.000; -185.000
871.792;  -91.525; -173.000; -222.000
872.038;  -73.125;   43.000; -126.000
872.285; -121.550; -496.000; -387.000
872.532; -105.575; -357.000; -387.000
872.778;   17.375;  556.000;  403.000
873.025; -106.400; -384.000; -359.000
873.271;   18.850;  501.000;  578.000
873.517;  -30.275; -133.000; -209.000
873.764;  -33.675; -193.000;  -80.000
874.010;  -74.550; -143.000; -230.000
874.257;  -59.475;  123.000;   90.000
874.503; -126.475; -579.000; -479.000
874.749;  -80.325;   31.000;  275.000
874.995;  -74.325;  -80.000;  -20.000
875.242; -118.900; -540.000; -478.000
875.488; -117.100; -414.000; -439.000
875.734;  -57.575; -106.000; -234.000
875.980;  175.900; -872.000;-1032.000
876.226;  398.850; -157.000; -255.000
876.472;  -16.550;  343.000;  237.000
876.718;  -42.425;  184.000;  158.000
876.964;  -43.325;   56.000;   55.000
877.210; -141.600; -547.000; -677.000
877.456; -140.525; -630.000; -557.000
877.702; -181.775; -821.000; -832.000
877.948; -119.175; -377.000; -497.000
878.193;    0.025;  361.000;  255.000
878.439; -105.275; -487.000; -472.000
878.685; -100.150; -272.000; -343.000
878.931; -136.075; -618.000; -676.000
879.176;  -84.200; -201.000; -201.000
879.422; -179.175; -933.000; -820.000
879.668;   56.175;   10.000;   79.000
879.913;  156.225;   53.000;  137.000
880.159;  -61.200; -112.000;  -17.000
880.404;  -47.775; -152.000; -162.000
880.650;  -38.500;   91.000;  141.000
880.895; -169.050; -670.000; -710.000
881.141; -131.275; -454.000; -428.000
881.386; -155.075; -503.000; -658.000
881.631;  -97.525; -311.000; -166.000
881.877;  -57.700;  112.000;  -13.000
882.122; -146.450; -684.000; -600.000
882.367;  -92.800; -136.000; -186.000
882.612;  -86.125;  -80.000; -176.000
882.858; -188.025; -877.000; -823.000
883.103; -107.425; -297.000; -267.000
883.348; -156.000; -759.000; -852.000
883.593; -141.225; -677.000; -602.000
883.838;  -66.025; -311.000;  -24.000
884.083;    2.700;  353.000;  288.000
884.328;  -95.825; -564.000; -545.000
884.573;  -56.450; -196.000; -143.000
884.818;  195.850; -694.000; -531.000
885.063;  203.375; -348.000; -315.000
885.308; -113.000; -475.000; -398.000
885.553;  -10.500;  245.000;  325.000
885.797; -143.675; -545.000; -615.000
886.042;  -74.450;    8.000;   58.000
886.287;  -88.475; -253.000; -211.000
886.532;  -53.225;   26.000;  204.000
886.776; -103.350; -407.000; -525.000
887.021; -146.900; -621.000; -574.000
887.265; -151.700; -685.000; -689.000
887.510; -134.200; -557.000; -496.000
887.755; -101.250; -194.000; -164.000
887.999; -144.150; -552.000; -575.000
888.244;  -67.400;  -58.000;  161.000
888.488;   -8.350;  371.000;  393.000
888.732; -136.800; -368.000; -520.000
888.977; -134.475; -622.000; -567.000
889.221; -153.475; -683.000; -659.000
889.465; -121.475; -422.000; -566.000
889.710;  -87.775;  -56.000; -299.000
889.954;   -4.250;  579.000;  467.000
890.198; -151.325; -584.000; -707.000
890.442; -158.775; -716.000; -712.000
890.687; -182.525; -800.000; -753.000
890.931; -109.875; -273.000; -210.000
891.175; -125.975; -502.000; -500.000
891.419;  -85.275; -105.000; -110.000
891.663; -105.150; -239.000; -112.000
891.907; -160.575; -801.000; -545.000
892.151; -183.875; -920.000; -815.000
892.395; -105.150; -274.000; -387.000
892.638;  -36.900;  408.000;  291.000
892.882; -174.825; -780.000; -867.000
893.126;    5.525;  758.000;  558.000
893.370;  -91.025; -167.000; -168.000
893.614; -141.675; -714.000; -715.000
893.857; -105.575; -183.000; -197.000
894.101; -137.775; -527.000; -631.000
894.345;  -60.550;  300.000;  150.000
894.588;    2.450;  569.000;  380.000
894.832;  -98.750; -178.000;  -84.000
895.075;  -88.575;   15.000;  -92.000
895.319; -139.450; -552.000; -420.000
895.563; -109.675; -413.000; -353.000
895.806; -148.025; -628.000; -741.000
896.049;  -65.700; -576.000; -368.000
896.293;   89.525;  527.000;  405.000
896.536;  -76.475; -465.000; -468.000
896.779;  -69.125; -149.000;   -1.000
897.023; -149.200; -751.000; -714.000
897.266;  -37.375;  325.000;  269.000
897.509; -193.525; -900.000; -901.000
897.752;  -58.525;  149.000;  171.000
897.996; -201.750; -972.000; -864.000
898.239;  -53.925;  168.000;  102.000
898.482; -125.950; -431.000; -453.000
898.725;  -34.750;  101.000;   53.000
898.968; -162.375; -609.000; -744.000
899.211; -106.875; -513.000; -361.000
899.454; -122.175; -633.000; -539.000
899.697;  -80.950;   90.000;  -43.000
899.940; -170.200; -761.000; -757.000
900.182; -120.400; -335.000; -405.000
900.425; -101.600; -150.000; -298.000
900.668;  -22.125;  491.000;  350.000
900.911;  -99.700; -292.000; -345.000
901.154;  -60.325;  141.000;   -3.000
901.396; -138.525; -407.000; -412.000
901.639; -141.125; -430.000; -496.000
901.882; -185.575; -790.000; -809.000
902.124; -103.850;  -29.000; -143.000
902.367; -117.200; -315.000; -361.000
902.609; -138.975; -476.000; -453.000
902.852;  -89.825; -108.000; -260.000
903.094; -114.900; -458.000; -337.000
903.337;  -62.650;  -26.000;   53.000
903.579; -115.025; -228.000; -441.000
903.821; -157.950; -597.000; -744.000
904.064;  -65.525;   85.000;  127.000
904.306;  -92.525; -126.000; -166.000
904.548; -109.550; -152.000; -366.000
904.790; -102.150; -195.000; -340.000
905.033; -141.100; -625.000; -577.000
905.275; -130.900; -513.000; -524.000
905.517;   30.650;  468.000;  256.000
905.759;  -63.825; -667.000; -761.000
906.001; -109.450; -322.000; -369.000
906.243;  -72.575; -162.000; -224.000
906.485;  106.050; -265.000; -207.000
906.727;  108.275; -499.000; -542.000
906.969;  -33.700;  -30.000; -135.000
907.211;  120.425; -316.000; -382.000
907.453;  279.300; -188.000; -237.000
907.695;   -0.600; -158.000; -385.000
907.936;   32.425;  818.000;  706.000
908.178;  -63.200;   92.000; -135.000
908.420;  -84.625; -111.000; -162.000
908.662; -137.300; -633.000; -682.000
908.903;  -96.825; -208.000; -123.000
909.145;  -70.975; -240.000; -305.000
909.386;   -8.350;  315.000;  280.000
909.628;   36.075;  363.000;  397.000
909.870;   -3.675;   29.000;  264.000
910.111;  -97.250; -809.000; -949.000
910.353;   11.650; -123.000; -161.000
910.594;  -13.325; -574.000; -606.000
910.835;   75.275; -265.000; -326.000
911.077;  130.450; -503.000; -604.000
911.318;  280.675; -505.000; -471.000
911.559;  448.150; -577.000; -880.000
911.801; 1285.000; -284.000; -280.000
912.042; 9797.100;  -50.000; -159.000
912.283;26606.550;  404.000;  371.000
912.524; 4356.000; -396.000; -457.000
912.765;  472.400; -193.000;   79.000
913.006;  226.375; -307.000; -338.000
913.247;   52.425; -270.000; -290.000
913.488;   -3.725;  -43.000;   30.000
913.729;  -97.600; -373.000; -373.000
913.970;  -66.550;  -96.000; -292.000
914.211;  -67.950; -160.000; -198.000
914.452;  -65.575; -118.000;  -11.000
914.693;    6.375;  510.000;  592.000
914.934;   -6.925;  510.000;  440.000
915.175;  -62.175;   53.000;  -95.000
915.415;  -68.625; -137.000;   27.000
915.656;  -68.400;  -28.000;  192.000
915.897;  -86.825; -252.000;  -82.000
916.137;  -77.300;   74.000;   -9.000
916.378; -139.925; -573.000; -517.000
916.619;  -92.375; -159.000;  -63.000
916.859;  -29.650;  303.000;  330.000
917.100;  132.975; 1655.000; 1070.000
917.340;   50.950;  930.000;  728.000
917.581;   31.125;  965.000;  789.000
917.821;  -30.325; -171.000;  143.000
918.061;   17.475; -199.000;  -72.000
918.302;  -64.900; -152.000; -211.000
918.542;  -41.550;  -22.000;    3.000
918.782;   26.050;  369.000;  377.000
919.023;  117.200;  360.000;  427.000
919.263; 1697.400; 8131.000;  202.000
919.503; 1130.100; -137.000;  -54.000
919.743;  636.550;  390.000;  266.000
919.983;  280.650; -134.000;  -26.000
920.223;   71.500;  135.000;   14.000
920.463;  139.575;  631.000;  554.000
920.703;  130.725;   84.000;   39.000
920.943;  151.300; -110.000;   90.000
921.183;  192.375; -414.000; -405.000
921.423;  491.000;  307.000;  546.000
921.663;  663.200; -174.000; -257.000
921.903; 1493.275;  237.000;  173.000
922.143; 8161.575;  372.000;  389.000
922.383;32261.875;  158.000;  115.000
922.622;11566.650; -120.000;  -15.000
922.862; 1210.650;  796.000;  785.000
923.102;  435.475;  -51.000;   33.000
923.341;  188.150;   59.000;   74.000
923.581;   79.200;  450.000;  360.000
923.821;   14.900;  301.000;  398.000
924.060;    0.450;  351.000;  193.000
924.300;  -65.225;  -16.000; -128.000
924.539;  -14.175;  584.000;  473.000
924.779;    8.025;  812.000;  597.000
925.018;  -62.875;  247.000;  353.000
925.257;  -27.675;  595.000;  666.000
925.497;  -42.375;  447.000;  412.000
925.736;  -78.050;  -35.000;  102.000
925.975;   -9.200;  687.000;  669.000
926.214;   24.725;  907.000;  850.000
926.454;    5.575;  706.000;  757.000
926.693;  -33.750;  419.000;  543.000
926.932;   21.675; 1021.000;  825.000
927.171;   68.125; 1107.000; 1044.000
927.410;   52.500; 1144.000;  967.000
927.649;    6.000;  924.000;  742.000
927.888;  -15.150;  590.000;  564.000
928.127;   -5.200;  680.000;  678.000
928.366;   23.225;  842.000;  826.000
928.605;   38.325;  831.000;  737.000
928.844;  233.875; 1451.000; 1393.000
929.083;  599.100;  770.000;  613.000
929.321;  337.375; 1335.000; 1359.000
929.560;   85.400; 1158.000; 1122.000
929.799;  -40.450;  574.000;  475.000
930.038;   83.800; 1025.000; 1394.000
930.276;  -38.175;  334.000;  397.000
930.515;  -13.575;  827.000;  681.000
930.753;  -21.325;  614.000;  589.000
930.992;  -18.600;  664.000;  717.000
931.230;   -6.950;  847.000;  847.000
931.469;  156.575; 2162.000;  892.000
931.707;   77.700;  840.000;  751.000
931.946;   65.825; 1278.000; 1344.000
932.184;   65.425; 1437.000; 1175.000
932.423;   50.575; 1265.000;  963.000
932.661;   81.875; 1296.000; 1428.000
932.899;   25.850;  987.000;  821.000
933.137;   -3.800;  754.000;  564.000
933.376;  134.625; 1664.000; 1335.000
933.614;  150.300; 1759.000; 1196.000
933.852;   46.500; 1357.000; 1171.000
934.090;  113.850; 1722.000; 1747.000
934.328;  113.000; 1252.000; 1457.000
934.566;   95.375; 1431.000; 1110.000
934.804;  104.150; 1263.000; 1309.000
935.042;  412.625; 1861.000; 1850.000
935.280; 1601.500; 2088.000; 2063.000
935.518; 1602.900; 2113.000; 2007.000
935.756;  355.600; 2481.000; 2316.000
935.994;  157.700; 1808.000; 1751.000
936.231;  345.950; 2890.000; 2950.000
936.469;  199.350; 2367.000; 2378.000
936.707;  148.075; 2220.000; 2167.000
936.945;  223.575; 2825.000; 2882.000
937.182;  212.950; 2679.000; 2741.000
937.420;  304.925; 3602.000; 3031.000
937.657;  420.250; 3365.000; 3478.000
937.895;  347.675; 3331.000; 3488.000
938.133;  302.350; 3540.000; 3528.000
938.370;  346.750; 3896.000; 4191.000
938.607;  390.625; 4488.000; 4205.000
938.845;  555.925; 5587.000; 5549.000
939.082;  465.025; 5387.000; 5177.000
939.320;  537.650; 5799.000; 5728.000
939.557;  625.175; 6549.000; 6491.000
939.794;  727.150; 7285.000; 7097.000
940.031;  906.875; 8421.000; 8368.000
940.269; 1085.400; 9552.000; 9107.000
940.506; 1114.400;10901.000;10507.000

