
Integration time [ms]: 200.000
Averaging Nr. [scans]: 10
Smoothing Nr. [pixels]: 0
Data measured with spectrometer [name]: 2101013U2
Wave   ;Sample   ;Dark     ;Reference
[nm]   ;[counts] ;[counts] ;[counts] 

394.013;  -88.845; -450.257; -315.536
394.305; -175.245; -461.258; -419.536
394.596; -149.356; -676.269; -527.514
394.887; -208.154; -796.268; -654.518
395.178;  -12.251;  145.736;   11.476
395.470;  -46.150; -210.263; -356.526
395.761;  104.247;  305.734;  394.479
396.052; -129.970; -545.284; -306.489
396.343; -142.362; -557.276; -454.503
396.634;  -89.166; -200.279; -290.497
396.926; -129.955; -618.268; -565.517
397.217;    1.338;   11.725;  -17.504
397.508;  -70.760; -366.273; -154.507
397.799; -169.866; -555.279; -571.497
398.090; -241.966; -973.280; -902.495
398.381;   -9.878;   11.708;  -11.473
398.672; -160.378; -585.292; -742.473
398.963; -100.665; -348.279; -373.498
399.254;   29.023;   54.709; -209.475
399.545; -251.053;-1017.266; -883.520
399.836;  -70.663; -407.277; -343.501
400.127;  -40.080; -205.295; -209.468
400.418;  -45.361; -423.274; -392.506
400.709;  -95.068; -359.281; -333.493
401.000;  -52.276; -268.291; -309.476
401.290;   84.813;  225.698;  115.545
401.581;  -13.472; -166.286; -228.485
401.872; -146.283; -542.298; -486.462
402.163;  -42.681; -313.296; -252.467
402.454;  -23.377; -123.291; -163.475
402.744; -171.682; -844.297; -813.465
403.035;  -92.279; -226.293;  -86.471
403.326;  -50.677; -366.292; -384.474
403.617;   76.616;  204.701;  165.539
403.907; -141.469; -593.283; -679.490
404.198; -159.192; -545.307; -599.446
404.489; -142.969; -618.283; -588.491
404.779; -182.587; -618.302; -660.456
405.070;  -27.789;  -67.304; -174.451
405.360;  -54.979; -259.293; -238.472
405.651;   92.414;  125.699;   98.542
405.942;   33.028;  209.714;  127.516
406.232; -111.271; -432.285; -413.487
406.523;  198.021;  641.706;  758.530
406.813; -145.772; -579.286; -644.484
407.104;   81.922;  261.708;  144.527
407.394; -200.484; -604.299; -591.462
407.685;   57.929;  336.715;  222.513
407.975; -107.069; -400.283; -382.490
408.265;  -32.275; -134.289; -190.478
408.556; -118.177; -472.291; -459.475
408.846;  122.021;  474.706;  429.530
409.137;  -11.874;   -1.288; -216.480
409.427;  -86.871; -193.285; -271.487
409.717; -175.960; -776.273; -692.508
410.007;  -23.171;    4.715; -170.486
410.298;  -73.080; -360.295; -342.469
410.588; -122.571; -495.285; -510.486
410.878; -226.073; -792.287; -873.482
411.168;  -91.783; -481.298; -478.463
411.459;  -28.269; -295.283; -242.489
411.749; -152.677; -609.292; -507.474
412.039; -194.674; -755.289; -386.480
412.329;   44.136;   40.722;  132.501
412.619;  -32.572;  -62.286; -148.485
412.909;  230.925;  639.711;  594.521
413.199;   -6.066; -130.280; -251.495
413.490;  147.724;  521.710;  352.523
413.780; -230.166;-1013.279; -913.496
414.070;   33.638;  -46.276;  235.497
414.360; -147.065; -729.278; -666.498
414.650; -213.873; -726.288; -688.482
414.940; -131.566; -538.280; -441.496
415.230;   55.626;   50.712;   74.519
415.520;   60.544;  155.730;   66.486
415.809;  -65.168; -305.281; -125.493
416.099; -131.063; -388.277; -229.501
416.389;  117.839;  435.726;  236.494
416.679;   30.551;   91.738;   85.473
416.969; -131.473; -527.287; -503.483
417.259;   76.034;  341.721;  171.503
417.549;  103.232;  522.718;  318.508
417.838;  -47.754; -205.268; -147.518
418.128;  151.525;  650.710;  492.522
418.418; -138.759; -491.272; -579.509
418.708;   16.939;    9.726;  -48.506
418.997;  -91.761; -474.275; -480.505
419.287; -217.260; -733.273; -790.507
419.577;  -30.469; -160.283; -123.489
419.866; -124.363; -588.277; -498.501
420.156;  -47.757; -242.270;  -55.513
420.446;  -54.750; -112.263;  -26.526
420.735; -137.257; -376.271; -446.512
421.025;  512.035; 1830.722;  315.502
421.314;  -31.858; -203.271; -226.512
421.604;   23.845;   89.732;  233.484
421.893; -151.858; -705.271; -602.511
422.183; -145.650; -487.263; -461.526
422.472;   -7.758;  -36.271; -107.511
422.762;  -99.952; -416.266; -379.521
423.051; -243.762; -916.276; -916.503
423.341; -153.860; -491.273; -439.507
423.630;  -19.852; -121.265;   15.477
423.919;   35.039;   58.725;   49.495
424.209;   10.050;  -31.263;   56.473
424.498;   -6.555;   68.732;  161.483
424.787; -139.254; -535.267; -601.518
425.077;  -19.352;   34.735;   29.478
425.366; -224.349; -734.262; -744.528
425.655;  189.840;  639.727;  259.493
425.945;  -49.435; -313.247; -268.554
426.234;   -1.247;  117.741;  300.467
426.523;  -75.146;  -86.259; -350.534
426.812;   51.047;  107.734;  159.480
427.101;   -2.756; -127.269; -323.515
427.390;   -7.456;  -55.270;  -86.514
427.680; -115.344; -624.257; -411.538
427.969;  -91.943; -330.255; -301.540
428.258; -118.145; -385.257; -477.536
428.547;   99.542;  449.728;  397.490
428.836; -127.041; -421.253; -398.543
429.125;  -76.746; -199.259;  -72.534
429.414; -103.938; -330.251; -294.548
429.703;  -66.138; -231.251; -213.548
429.992; -237.538; -938.250; -828.549
430.281; -139.451; -397.264; -331.524
430.570;    7.461;  -21.252;   32.454
430.859;   45.854;  279.741;  352.466
431.148;  190.265;  636.752;  631.446
431.437;   78.560;  391.748;  367.454
431.725; -133.045; -544.257; -481.536
432.014; -236.740; -845.253; -756.545
432.303;  -54.527; -149.239; -105.569
432.592; -105.150; -460.263; -178.525
432.881; -177.035; -601.248; -437.554
433.169;  -93.743; -343.255;  -61.540
433.458;  120.676;  445.765;  540.424
433.747; -102.148; -397.261; -289.529
434.036;  -84.630; -275.242; -280.564
434.324; -162.237; -395.249; -379.551
434.613;   19.669;   40.757;  159.437
434.902;   74.472;  333.760;  439.433
435.190;   40.273;   75.761;  295.431
435.479;  -71.633;  -52.245;   83.441
435.767; -111.532; -411.244; -427.561
436.056; -119.530; -340.242; -294.563
436.345;  -89.628; -372.240; -223.568
436.633;   49.463;   60.750;  383.450
436.922;  102.972;  208.760;  414.432
437.210;  -94.625; -194.236;    1.426
437.499; -190.124; -583.235; -432.576
437.787; -117.725; -339.236;  -10.574
438.075;   49.073;   56.761;  162.430
438.364;   -6.626;  -44.238;  250.429
438.652;  -87.915; -286.226; -138.592
438.941;   -6.519;    3.770;  269.415
439.229; -202.540; -665.252; -466.545
439.517;  -78.823; -160.234;  -85.577
439.806; -157.613; -501.225; -290.595
440.094;   81.678;  377.766;  650.421
440.382; -172.522; -653.233; -302.580
440.670; -131.324; -361.235; -285.576
440.959; -132.212; -347.223; -170.599
441.247;  -85.518; -151.229; -109.587
441.535;  -73.123; -266.235;   31.423
441.823; -171.922; -497.234; -305.578
442.111;   38.583;  173.771;  327.412
442.400; -164.833; -628.245; -335.559
442.688;  -59.422; -111.234; -620.579
442.976; -261.602; -786.213; -450.617
443.264;  -95.313; -324.224; -364.597
443.552;  -76.015; -258.226;   51.408
443.840;  132.177;  602.765;  876.423
444.128;   97.878;  265.767;  269.420
444.416; -159.317; -694.228; -312.588
444.704; -119.308; -465.219;  -92.605
444.992;  -26.615;   -0.226;  240.407
445.280; -123.019; -517.230;  -94.585
445.568; -206.502; -694.212; -396.618
445.856;  -52.310; -174.221;  357.398
446.143;  -69.309;  -54.220;   -7.604
446.431;   19.783;  -25.228;  625.411
446.719;  146.894;  489.783;  675.391
447.007;  122.680;  481.769;  705.416
447.295;  168.288;  597.777;  871.402
447.583; -155.018; -464.229;  -34.587
447.870; -118.210; -434.221; -202.601
448.158;  -63.319; -104.230;  129.415
448.446; -230.309; -800.219; -338.604
448.733;  -32.113;   13.776;  269.403
449.021;    8.698;   60.788;  341.382
449.309;  -80.800; -296.210;  208.379
449.596;   44.693;  128.783;   59.392
449.884; -188.411; -571.222; -325.600
450.172; -222.216; -756.227; -406.590
450.459;  136.596;  645.786;  780.387
450.747; -161.307; -411.218; -147.608
451.034;  148.083;  493.772;  889.411
451.322; -123.104; -413.214; -170.614
451.609;   34.088;  292.777;  508.403
451.897; -172.393; -550.203; -183.634
452.184; -210.712; -622.223; -400.598
452.472;  -37.698;   97.792;  269.375
452.759;  136.891;  512.781;  864.395
453.047; -133.202; -407.212; -125.617
453.334; -191.208; -732.219; -216.606
453.621; -161.303; -438.214; -161.615
453.909;  -27.494;   13.796;  384.368
454.196;  -87.289; -299.199; -123.641
454.483;   27.408;  317.798;  540.364
454.771;  -55.297; -215.208;  196.374
455.058;  -78.697; -316.207;  102.374
455.345;   37.217;   71.807;  344.347
455.632;  -69.097; -128.207;  235.373
455.919;  -19.387;  -82.196;  182.354
456.207; -265.289; -774.198; -450.642
456.494; -134.791; -475.200;  -66.639
456.781; -152.292; -399.202; -198.635
457.068;  -52.296; -253.206;  -29.628
457.355; -176.896; -698.206; -401.629
457.642; -150.295; -552.205; -290.630
457.929; -210.184; -778.194; -417.651
458.216; -154.902; -575.212; -354.617
458.503;  -74.184; -173.193;  -19.652
458.790; -236.398; -864.208; -630.625
459.077;  -86.092;  -77.202;  110.364
459.364; -130.685; -350.195; -210.649
459.651;   -6.296;  -46.206;  220.372
459.938; -239.399; -864.209; -665.623
460.225;   -0.691;  132.799;  276.363
460.512; -250.287; -836.197; -688.645
460.799;  -11.507;  -32.218;  320.392
461.086; -101.590; -370.200; -251.640
461.372; -159.189; -509.198; -279.642
461.659;   -8.787; -165.196;  108.354
461.946; -115.784; -445.193;  -54.651
462.233;  228.910;  842.800;  888.361
462.519; -253.291; -814.201; -464.639
462.806; -196.687; -768.197; -497.645
463.093; -121.482; -445.191;  -66.656
463.380; -237.177; -920.186; -824.664
463.666;  -85.287; -259.197;  -18.646
463.953;  -88.586; -406.195; -243.648
464.239;  -87.086; -173.195;  -77.648
464.526;  113.816;  413.806;  743.350
464.813; -172.680; -565.190; -304.658
465.099;  104.016;  606.807;  607.348
465.386;  205.217;  903.807;  921.348
465.672; -205.087; -694.197; -522.645
465.959; -191.278; -598.188; -520.662
466.245; -128.883; -468.193; -359.652
466.532;  -58.986; -109.195;   63.352
466.818; -101.577; -357.186; -216.664
467.104; -170.273; -488.182; -415.672
467.391; -154.280; -628.189; -459.658
467.677;  -94.277; -289.186;    9.335
467.964; -186.479; -682.189; -471.660
468.250; -103.976; -331.186; -160.665
468.536;  -14.880;   90.811;  180.341
468.822; -227.075; -821.184; -574.668
469.109;  107.936;  351.827;  471.311
469.395;  190.618;  729.808;  787.346
469.681;   20.720;   46.811;  156.341
469.967; -176.579; -699.188; -382.660
470.254; -104.478; -494.188; -306.662
470.540; -174.287; -601.196; -476.646
470.826; -108.472; -488.181; -397.675
471.112;   30.325;  288.816;  113.331
471.398;  -79.074; -253.183;  -58.670
471.684; -138.569; -626.177; -447.680
471.970; -274.971; -918.180; -981.675
472.256; -170.082; -521.192; -441.654
472.542; -126.863; -499.171; -434.691
472.828; -218.673; -743.182; -607.672
473.114; -116.858; -380.166; -283.700
473.400; -167.367; -504.175; -293.684
473.686; -135.657; -452.166; -400.701
473.972;  -48.065; -230.174; -131.687
474.258; -254.364; -925.173; -843.689
474.544;  -38.069; -183.178;   -2.679
474.830;   -3.767;  -65.175;   45.316
475.116;  -75.180; -123.190; -196.658
475.401; -140.271; -558.180; -467.676
475.687; -222.471; -725.180; -718.676
475.973; -175.572; -673.181; -770.673
476.259;  206.534;  736.825;  764.315
476.544; -130.868; -539.176; -437.682
476.830; -186.163; -398.172; -322.690
477.116;  -98.068; -430.177; -336.682
477.401;   99.229;  346.820;  358.324
477.687; -129.967; -289.175; -405.684
477.973;  -34.272;   21.819;   28.326
478.258; -103.055; -448.163; -348.706
478.544;  -36.576;   21.815;   61.334
478.829; -223.262; -818.171; -738.692
479.115; -214.663; -749.172; -651.690
479.401; -116.366; -444.174; -449.686
479.686;  -67.471; -253.180;  -74.676
479.972; -237.569; -886.178; -776.680
480.257;  -75.758; -258.166;  -65.700
480.542; -156.162; -614.170; -469.693
480.828;  374.033; 1288.824; 1392.317
481.113; -144.267; -464.176; -426.683
481.399;  -73.553; -236.161; -202.711
481.684; -134.158; -620.166; -462.700
481.969;  -28.051; -158.159;  -73.713
482.255; -129.761; -439.169; -285.695
482.540; -156.369; -569.178; -441.680
482.825; -137.778; -395.187; -404.663
483.110;  -59.760;  -85.169; -105.696
483.396; -225.349; -840.157; -652.718
483.681;  127.735;  543.826;  730.313
483.966; -230.352; -696.160; -700.712
484.251; -145.965; -404.174; -310.687
484.536; -125.057; -356.165; -378.703
484.822; -118.365; -205.173; -218.687
485.107; -165.145; -599.152; -502.726
485.392;   93.244;  662.836;  541.296
485.677;   77.241;  354.832;  163.302
485.962;   23.451;  160.843;  270.283
486.247;   -2.454;  -14.162;   -8.707
486.532; -122.758; -178.166; -325.701
486.817;   97.747;  381.839;  431.291
487.102; -183.747; -453.154; -514.722
487.387; -167.049; -637.156; -652.718
487.672;  -54.756; -154.164;  -38.705
487.957;  -94.353; -394.160; -286.711
488.241;  -92.343; -290.150; -314.729
488.526; -112.145; -280.152; -148.726
488.811; -252.969; -881.177; -818.680
489.096; -212.246; -666.154; -702.723
489.381;  -51.145;    3.847;  162.275
489.666; -119.953; -428.161; -510.710
489.950;  129.354;  558.846;  627.277
490.235; -158.543; -480.151; -458.728
490.520; -216.753; -756.161; -723.710
490.804; -240.348; -827.156; -736.719
491.089; -113.541; -469.149; -299.732
491.374;  -27.356; -132.164;  -75.704
491.658; -224.240; -817.147; -717.735
491.943; -154.344; -657.152; -609.727
492.227;  -45.547; -178.155;  -38.721
492.512; -105.249; -294.157; -341.717
492.797; -230.542; -713.149; -716.731
493.081; -217.640; -588.147; -598.735
493.366; -226.853; -751.161; -635.711
493.650;  175.166;  831.859;  917.254
493.935; -200.040; -648.147; -447.734
494.219; -177.135; -778.142; -687.743
494.503; -199.842; -585.150; -487.730
494.788;  -36.150;   46.842;   74.285
495.072;   70.257;  184.850;  434.271
495.356; -113.441; -463.148; -343.733
495.641; -243.539; -812.146; -736.736
495.925; -246.148; -976.156; -903.719
496.209; -146.341; -599.149; -451.732
496.494; -207.135; -763.142; -544.744
496.778; -104.747; -364.154; -360.722
497.062; -203.048; -819.156; -627.719
497.346; -250.552; -869.160; -640.711
497.631;  140.859;  580.852;  560.266
497.915;  -16.038;  -64.145;  175.261
498.199; -111.749; -341.157; -277.718
498.483; -167.345; -562.152; -508.725
498.767;   54.057;  301.850;  300.271
499.051;  -38.342; -126.149; -100.732
499.335; -173.042; -693.149; -739.731
499.619; -173.323; -381.129; -423.767
499.903;  -66.247; -272.155;  -65.721
500.187; -174.346; -588.153; -316.724
500.471; -243.244; -796.152; -595.727
500.755;  -41.353;   62.839;  -96.710
501.039;  -94.447; -270.155; -357.721
501.323;   36.666;  -21.141;  264.254
501.607; -138.755; -447.163; -503.706
501.891; -162.349; -607.156; -512.718
502.174; -210.337; -726.144; -585.741
502.458;    1.956;   89.849;  370.273
502.742;  -58.331; -180.138; -191.751
503.026; -125.940; -412.147; -254.734
503.310; -150.451; -437.159; -375.713
503.593; -140.540; -464.147; -325.735
503.877;  -54.927; -232.133; -156.760
504.161;  -44.546;    2.847;  -50.724
504.444; -234.550; -841.158; -710.716
504.728; -198.556; -487.164; -522.704
505.012;  -74.843; -257.150;  -76.729
505.295; -138.353; -417.161; -212.711
505.579;  -62.448; -256.156; -496.719
505.862; -149.938; -555.145; -333.738
506.146; -179.451; -681.159; -758.714
506.429;  109.949;  568.841;  461.286
506.713; -199.043; -732.151; -667.728
506.996;   -3.247;   90.846;  295.278
507.280; -172.856; -633.165; -474.703
507.563; -136.447; -469.155; -261.721
507.847; -139.746; -423.153; -112.724
508.130; -175.053; -665.161; -456.711
508.413; -177.558; -758.167; -577.700
508.697;  -19.258; -151.167;   12.300
508.980; -100.346; -422.153; -312.724
509.263; -180.748; -466.155; -450.720
509.547;  -22.543; -124.150;   82.271
509.830;  -53.152; -172.160;  140.289
510.113;   16.052;  128.844;  298.281
510.396; -156.845; -530.152; -300.725
510.680; -240.338; -818.145; -812.738
510.963;   18.654;  184.846;  180.277
511.246; -173.442; -493.150; -357.730
511.529; -138.338; -482.145;  -83.739
511.812;  -46.627; -250.134;   10.241
512.095; -203.044; -740.151; -396.728
512.378; -104.239; -317.147; -245.736
512.661; -220.730; -703.137; -623.753
512.944; -228.435; -750.142; -637.744
513.227; -100.731; -170.137; -171.752
513.510; -150.337; -479.144; -671.741
513.793; -178.733; -485.140; -435.747
514.076;   -6.421;  -43.127;  -39.771
514.359; -103.141; -294.149; -135.732
514.642; -158.235; -442.142; -567.744
514.925;   94.767;  581.860;  561.253
515.208; -136.428; -498.134; -443.758
515.491;  -74.926; -276.133; -182.761
515.773; -141.836; -410.143; -337.742
516.056;   21.870;  249.864;  409.246
516.339; -257.129; -754.136; -652.755
516.622; -171.642; -518.150; -488.730
516.904;  232.065;  882.857;  975.257
517.187; -218.131; -730.138; -523.752
517.470; -160.336; -568.143; -510.743
517.752; -180.929; -624.136; -470.756
518.035; -207.632; -708.139; -725.749
518.318; -254.129; -799.136; -744.755
518.600;  -74.226; -300.132; -325.762
518.883;   -1.235;  310.858;   88.256
519.165; -166.332; -585.138; -426.751
519.448;  -65.626;  -61.132;  -19.762
519.730; -187.920; -573.126; -415.773
520.013;  148.574;  588.867;  664.240
520.295;  -18.027;  -94.134;  -15.759
520.578; -129.324; -335.131; -305.764
520.860;  -25.826; -254.132;   56.238
521.143; -235.129; -763.135; -584.756
521.425; -109.819; -251.125; -279.775
521.707; -155.421; -622.127; -380.771
521.990;  -30.921; -199.127;  167.229
522.272;  -60.833; -116.140;   -4.748
522.554;  -73.936; -237.143; -157.742
522.836;  -40.927;  -24.134;   99.241
523.119; -127.540; -496.148; -189.734
523.401; -162.124; -448.130; -314.766
523.683; -241.430; -865.137; -693.753
523.965;    9.069;  408.862;  260.248
524.247;  -14.216;   54.878;  170.220
524.529; -170.727; -451.134; -367.759
524.812;   -3.023;   -3.130;  191.234
525.094; -267.731; -773.138; -631.751
525.376;  -45.318; -143.124;   78.223
525.658; -137.730; -441.136; -339.754
525.940; -241.225; -805.131; -671.764
526.222; -116.829; -188.136;  -88.755
526.504;  -42.525; -190.131;   32.237
526.786; -285.727; -960.133; -647.760
527.068;  -93.517; -124.123;  -67.778
527.349; -291.630; -865.137; -774.754
527.631;  -23.826; -137.132;   22.238
527.913; -197.321; -664.127; -450.771
528.195; -241.719; -761.125; -639.774
528.477;  -86.328;  -93.134;  -30.758
528.759; -209.223; -648.130; -522.766
529.040; -189.717; -569.123; -293.778
529.322;  -81.019; -235.125;  -10.774
529.604;  -61.123;  -47.130;   93.233
529.886; -168.620; -546.126; -302.773
530.167;   24.276;  232.870;  192.235
530.449;  -10.840;    1.853;   63.265
530.731; -167.216; -572.122; -459.779
531.012; -174.214; -513.120; -216.784
531.294;  -79.410; -118.116;  -43.792
531.575;   80.481;  290.875;  538.225
531.857; -174.828; -548.135; -266.757
532.138;  -63.834; -113.141;   40.254
532.420;   24.371;  294.865;  403.244
532.701; -232.726; -722.133; -751.760
532.983;   49.374;  232.867;  182.239
533.264;  -50.020; -243.126;  175.228
533.546; -156.829; -491.136; -508.755
533.827;    1.573;  173.867;   -1.759
534.109; -140.728; -352.135;  -80.757
534.390; -243.425; -725.132; -582.762
534.671;  -91.429; -270.135;  -82.756
534.953; -237.417; -751.123; -611.779
535.234; -170.111; -426.117; -255.789
535.515; -252.413; -891.119; -735.785
535.796; -151.021; -431.128; -193.770
536.078; -323.418;-1050.124; -904.777
536.359;  -87.217;  -22.123;    3.221
536.640; -123.419; -480.125; -197.774
536.921;  -15.123;  225.871;  143.232
537.202;  -82.831;  -87.138;  -16.751
537.483;    4.876;  251.869;  377.236
537.764;  -18.224;   17.870;   98.235
538.045; -195.128; -543.134; -371.758
538.326; -183.522; -596.129; -447.768
538.607; -223.421; -686.127; -476.771
538.888;  -28.215;   98.879;    5.218
539.169; -244.916; -704.122; -535.781
539.450;   16.277;  236.871;   16.233
539.731; -125.215; -361.121; -182.783
540.012;    5.086;  199.880;  412.216
540.293;  -37.018;   82.876;  158.224
540.574; -284.108; -895.113; -717.796
540.855;   52.285;  435.879;  377.218
541.136;  -30.216;   47.878;  139.220
541.416; -118.623; -161.130; -220.766
541.697; -121.325; -274.131; -170.763
541.978; -132.128; -270.135; -315.757
542.259; -110.021; -211.127; -236.771
542.539; -123.511; -191.116; -186.790
542.820;   79.081;  461.875;  480.225
543.101; -108.038;  -52.145;  -77.738
543.381; -253.121; -638.127; -591.771
543.662;  -28.821;  159.873; -254.771
543.942; -272.021; -751.127; -830.770
544.223;  -35.416;  193.878;  161.219
544.504; -129.118; -275.124; -182.777
544.784; -201.320; -592.126; -408.773
545.065; -128.010;  104.884; -254.791
545.345;  -51.913;  227.881;   14.215
545.626;  -44.008;  -14.113; -108.796
545.906;  -31.524;   77.869;   98.235
546.186;  -89.319;   92.874;  -95.773
546.467;  -96.617;   99.877;  -95.778
546.747;   14.189;  264.884;  327.210
547.027;  -37.318;   91.876;  111.223
547.308; -183.721; -376.127; -530.770
547.588;    9.978;  299.871;  371.232
547.868;  102.276;  458.870;  588.235
548.149;  118.591;  609.885;  593.207
548.429;  -95.321; -347.127; -299.771
548.709; -220.314; -645.120; -461.784
548.989;  -32.312;   84.882;   88.213
549.269; -134.126;   10.868;  139.239
549.550;  -36.717;  215.877;  117.222
549.830; -232.806; -758.111; -556.799
550.110; -174.105; -468.110; -320.801
550.390; -123.616; -128.122;  -56.779
550.670; -254.208; -868.114; -783.795
550.950; -191.015; -509.121; -471.782
551.230;  145.085;  549.879;  460.218
551.510; -158.715; -381.121; -326.782
551.790;  -64.004; -173.109; -127.803
552.070;  216.783;  940.877; 1181.223
552.350; -148.113; -492.119; -377.786
552.630;  -33.515;   -2.121;   77.219
552.909;  -52.410;  181.884;   73.209
553.189;  -56.925;  -49.132;   33.237
553.469; -176.213; -703.119; -514.786
553.749; -191.720; -469.127; -357.772
554.029;  -59.111;   33.883;  -24.790
554.308;  -97.409; -154.115;  -37.794
554.588; -118.021; -196.128; -204.770
554.868; -143.515; -366.121;  -47.782
555.147;  -93.009; -114.115;  -46.793
555.427; -137.910; -260.116; -250.792
555.707; -132.709; -284.115; -200.793
555.986; -218.605; -719.111; -538.800
556.266;   -4.911;   23.884;   72.210
556.546; -231.615; -888.121; -675.782
556.825; -233.308; -657.114; -556.794
557.105;  -64.022; -125.128;   17.230
557.384;   -1.410;  122.884;  187.209
557.664; -223.010; -717.116; -508.792
557.943; -164.915; -557.121; -411.782
558.222; -123.612; -345.118; -344.788
558.502;  -52.909; -116.115;  -76.793
558.781;   25.391;  194.885;  499.208
559.061;  -99.512; -232.118; -227.788
559.340;    8.689;  302.883;  353.211
559.619;  -16.811;   93.884;  148.210
559.899; -126.811; -239.117; -266.789
560.178; -214.909; -778.115; -593.793
560.457; -235.911; -623.117; -562.790
560.736; -169.805; -472.111; -482.800
561.015; -221.522; -500.128; -502.769
561.295;  -37.702;  180.893;  215.193
561.574;  -54.009;  119.885;  116.207
561.853;   42.896;  274.891;  303.197
562.132;  -73.309;  -45.114;  182.206
562.411;   87.485;  396.879;  553.219
562.690; -219.210; -592.115; -458.792
562.969;  106.593;  472.888;  630.203
563.248;  705.584; 2966.878; 2487.219
563.527; -123.905; -290.111; -408.800
563.806; -197.221; -650.127; -521.771
564.085;  -99.000; -297.105; -206.810
564.364; -207.311; -594.117; -405.790
564.643; -134.215; -276.121; -223.781
564.922;   10.796;  221.890;  397.198
565.201; -227.404; -640.109; -700.803
565.479; -143.110; -297.115; -219.792
565.758; -259.722; -810.128; -712.770
566.037; -114.804; -155.109; -100.803
566.316; -110.510; -286.116;  -28.791
566.595;  -88.009;  -17.115;  -12.793
566.873;  131.495; -166.111;  -79.801
567.152; -202.107; -490.113; -590.797
567.431;  -46.111; -113.116;    6.210
567.709; -120.702; -344.107; -212.807
567.988; -256.108; -810.114; -769.794
568.266; -164.509; -160.115;  -68.793
568.545; -210.795; -644.100; -514.819
568.824;   51.790;  160.885;  356.208
569.102; -156.408; -351.114; -235.794
569.381; -189.810; -492.116; -407.792
569.659; -196.607; -553.113; -553.796
569.938; -216.916; -743.122; -465.780
570.216; -105.903; -225.109; -225.804
570.494; -235.508; -632.114; -572.795
570.773;   17.285;  202.879;  114.218
571.051; -151.117; -373.123; -357.778
571.330;  -62.408; -221.113; -174.796
571.608;  -90.593; -181.098; -173.823
571.886; -248.206; -671.111; -581.799
572.164; -254.115; -739.121; -621.782
572.443; -174.900; -562.105; -512.811
572.721; -146.211; -399.117; -289.790
572.999; -116.612; -280.117; -168.788
573.277;   85.299;  379.894;  620.191
573.555;  -60.200;   94.894;   37.190
573.834; -135.512;  -86.117; -114.788
574.112;  161.298;  880.893;  811.193
574.390;  -65.505; -143.111;  -96.801
574.668;  -83.207;  -91.112;  -61.797
574.946; -127.800; -165.106; -187.810
575.224;  -49.204;   71.891;  -16.803
575.502;  -89.710; -200.116; -204.791
575.780; -218.907; -767.112; -829.798
576.058;  207.995; 1589.889; 1004.200
576.336; -106.205; -210.110; -129.801
576.614; -176.207; -511.112; -340.798
576.891; -251.309; -711.115; -823.794
577.169; -121.303; -158.108; -285.805
577.447;   19.198;  169.893;  202.193
577.725;  161.994;  629.888;  854.201
578.003;  -94.406;  -71.112; -371.798
578.280;  -88.199; -208.104; -242.812
578.558; -190.009; -450.115; -422.793
578.836;  -87.908; -210.114; -145.795
579.114; -222.807; -630.112; -670.797
579.391;  -96.911;   -6.117;  -18.789
579.669; -227.509; -595.114; -704.794
579.947; -137.402; -326.107; -127.806
580.224; -188.302; -692.107; -524.806
580.502;  -50.802;  127.893;   76.193
580.779;  -56.211;  -42.117;   75.210
581.057; -196.603; -584.109; -470.804
581.334; -253.197; -726.102; -695.815
581.612;   -0.200;   54.895;  511.190
581.889;  -58.996;  -83.101; -129.818
582.167;  -95.694; -298.099; -190.821
582.444; -260.196; -845.102; -814.817
582.721;  140.804;  657.899;  715.183
582.999;  -81.995; -326.100; -167.821
583.276; -249.417; -812.123; -713.779
583.553; -122.097; -364.102; -294.816
583.831; -248.199; -607.104; -631.812
584.108;   21.597;  349.892;  174.195
584.385; -115.297; -122.102;  -98.815
584.662; -240.705; -651.111; -828.801
584.940;  -15.005;  204.889;  204.199
585.217; -105.707;  -73.113; -303.796
585.494;    2.996;   71.890;  118.198
585.771; -144.903; -250.109; -354.804
586.048; -122.107; -196.113;  -76.796
586.325; -222.105; -721.110; -773.801
586.602;   -2.399;  230.896;  213.188
586.879; -198.095; -499.100; -580.820
587.156;  -88.200; -156.105; -331.810
587.433; -241.097; -701.102; -667.817
587.710;  -41.707;  152.888;  234.202
587.987;  -86.300; -264.105; -236.811
588.264;   65.194;  315.888;  387.202
588.541;  -48.899;  -61.104;   26.187
588.818;  -62.903;   72.892;  171.196
589.095;  -90.399; -163.104; -174.812
589.371; -198.304; -459.109; -414.804
589.648; -181.002; -581.107; -437.807
589.925; -209.108; -517.114; -621.795
590.202; -199.707; -741.112; -607.798
590.478;  -79.899; -166.105;  -73.811
590.755; -110.802; -241.108; -132.806
591.032; -239.905; -741.110; -699.802
591.308; -255.089; -732.094; -790.831
591.585; -212.605; -573.110; -560.802
591.862; -320.397;-1056.102; -950.817
592.138; -191.903; -475.108; -474.805
592.415; -192.599; -486.104; -495.813
592.691;   60.801;  460.896;  518.188
592.968;  -91.893; -208.098; -123.824
593.244; -231.611; -695.116; -595.790
593.521;  -58.196; -105.102;  -42.817
593.797; -284.916; -810.122; -720.780
594.074; -213.792; -611.096; -588.826
594.350;  170.609;  828.905;  729.172
594.626; -111.705; -303.111; -283.801
594.903; -231.096; -643.101; -645.817
595.179;   24.302;  243.896;  418.187
595.455;  -94.302; -136.107; -150.807
595.731;  -34.598;  -19.103;  -38.814
596.008; -166.606; -464.111; -434.800
596.284; -113.895; -187.100; -242.820
596.560; -194.788; -501.093; -493.833
596.836; -123.800; -173.105;  -70.810
597.112; -168.103; -582.108; -437.805
597.388;  -60.292;  -49.097;  -48.826
597.665;   63.493;  437.887;  530.203
597.941; -179.385; -572.089; -658.839
598.217; -165.304; -323.110; -293.802
598.493;  -91.703;   61.891; -204.804
598.769;  -89.895; -175.100;  -50.819
599.045; -204.902; -490.108; -562.806
599.321; -131.895; -193.100; -261.820
599.597; -120.703; -355.109; -476.804
599.872;   41.301;  409.896;  429.187
600.148; -104.492;  -61.097; -172.826
600.424;   -8.502;   91.893;  202.193
600.700;  -81.302; -170.107; -280.807
600.976; -161.392; -442.097; -464.825
601.252; -141.004; -226.109; -272.803
601.527; -281.699; -833.104; -840.813
601.803; -155.999; -453.105; -404.812
602.079;  -88.195; -124.100; -118.819
602.354; -165.687; -620.092; -531.835
602.630; -136.507; -140.113; -482.796
602.906; -243.096; -910.101; -863.818
603.181; -202.313; -627.119; -534.786
603.457;  -69.192;   98.903; -278.826
603.733; -229.415; -605.120; -626.783
604.008;  -60.600; -245.106; -164.810
604.284; -202.696; -636.101; -580.817
604.559;  -57.106;   -3.112;  -42.799
604.835; -155.800; -163.105; -225.810
605.110; -235.694; -732.099; -892.821
605.385;   33.312;  224.907;  267.167
605.661; -228.690; -625.095; -729.829
605.936; -261.902; -664.108; -737.806
606.211;  -65.098;  -17.103; -170.815
606.487; -143.909; -329.114; -376.794
606.762; -263.513; -791.119; -745.786
607.037; -165.400; -501.105; -433.810
607.313; -219.391; -589.096; -574.828
607.588;  -97.100; -375.106; -137.810
607.863;  -64.496;  -28.101; -143.818
608.138;   72.896;  513.890;  516.198
608.413; -181.494; -576.099; -592.822
608.688; -133.403; -203.108; -267.805
608.964;  -91.401; -509.106; -218.809
609.239;  -76.700; -107.105; -212.810
609.514;   40.401;  281.895;  240.188
609.789; -225.999; -187.104; -716.812
610.064; -185.791; -435.096; -609.827
610.339; -308.004; -855.109; -799.804
610.614;  -78.395; -131.100; -315.820
610.889;  -23.099;  215.895;  107.188
611.163; -191.499; -407.104; -591.812
611.438; -106.308;   81.886; -167.794
611.713; -177.796; -467.101; -499.817
611.988; -113.096; -144.101; -328.818
612.263; -254.697; -771.102; -717.815
612.538;   78.093;  385.887;  251.204
612.812; -264.295; -832.100; -911.820
613.087; -148.593; -358.098; -338.823
613.362; -169.802; -497.107; -557.807
613.637;    1.902;  261.897;  138.186
613.911; -107.587; -256.092; -345.835
614.186; -144.202; -249.107; -292.807
614.460; -271.877; -842.081; -758.854
614.735;  -51.983;  -55.087;  -17.843
615.010;  -51.384;   43.912;  -82.841
615.284;   68.097;  360.892;  246.195
615.559; -268.487; -792.092; -955.835
615.833;  -86.094;  -76.099;  -87.822
616.108; -118.986; -225.090; -390.837
616.382;   70.718;  274.913;  402.156
616.656;  -88.486; -241.090; -232.837
616.931; -249.794; -785.099; -700.822
617.205; -293.998; -973.104; -979.813
617.480;  -65.019;  -91.125;    6.225
617.754; -128.219; -396.125; -128.774
618.028; -165.522; -369.129; -382.768
618.302;   -9.703;   73.892;  -25.805
618.577; -188.598; -371.103; -518.815
618.851; -175.104; -399.109; -600.803
619.125; -126.427; -335.134; -378.759
619.399; -101.798; -244.104; -374.813
619.673; -108.510; -330.115; -515.792
619.947; -133.708; -333.114; -448.795
620.222; -146.705; -198.110; -204.801
620.496;  -66.315;  -47.121;  -96.782
620.770;  -58.716; -187.122;  -93.781
621.044;   44.900;  323.895;  346.190
621.318; -239.314; -653.120; -614.783
621.592; -115.415; -430.121; -409.783
621.866; -220.206; -476.112; -572.799
622.140;  -93.610; -207.116; -356.791
622.413;    0.894;  138.889;  112.200
622.687; -181.096; -746.101; -492.817
622.961;  -88.503; -130.108; -143.805
623.235; -227.806; -633.111; -661.800
623.509; -272.599; -816.105; -848.811
623.783;   -2.302;  -12.107;   48.193
624.056; -118.614; -254.120; -280.783
624.330;  -10.807;   63.888;   -3.797
624.604; -125.511; -271.116; -355.790
624.877;    0.696;  180.890;   26.198
625.151; -112.609; -249.114; -238.794
625.425;  -83.298; -150.103; -283.814
625.698; -192.313; -367.119; -374.785
625.972; -243.004; -799.110; -765.802
626.245;   71.189;  685.884;  484.210
626.519; -122.714; -426.120; -340.784
626.792;  -97.502; -192.107; -380.807
627.066; -205.316; -485.122; -662.779
627.339; -224.705; -736.110; -663.802
627.613;   44.186;  351.880;  148.216
627.886;   21.396;  187.891; -612.803
628.160;  -85.215;  312.880; -161.783
628.433; -232.018; -695.125; -703.775
628.706; -175.814; -517.120; -615.784
628.979;    9.382;  296.876;  117.223
629.253; -291.413; -785.119; -833.786
629.526; -156.820; -334.126; -253.772
629.799; -186.517; -641.123; -479.778
630.072; -155.522; -497.128; -516.769
630.346; -335.511;-1115.116;-1080.790
630.619; -177.101; -467.107; -545.808
630.892;  113.194;  709.889;  593.200
631.165;  143.702;  790.896;  679.187
631.438; -339.906;-1092.112;-1055.798
631.711;   60.483;  453.877;  257.221
631.984; -146.511; -523.117; -624.789
632.257; -212.411; -636.117; -681.789
632.530; -136.113; -412.119; -433.785
632.803;    4.991; -109.115;    7.207
633.076; -132.417; -360.123; -422.777
633.349;  -38.322;  173.872;  121.231
633.622;  -99.813; -187.119; -240.785
633.895; -261.014; -903.120; -823.783
634.167; -146.420; -496.126; -525.773
634.440;  -74.110;  -19.116; -137.792
634.713;  -27.513;  -22.119; -120.786
634.986;  109.477;  593.871;  453.233
635.258; -174.509; -507.115; -597.793
635.531;  116.288;  742.882; -343.788
635.804; -129.411; -303.117; -318.789
636.077; -275.410; -830.116; -852.791
636.349; -193.009; -586.115; -474.793
636.622;  458.480; 1695.874; 1392.228
636.894; -150.814; -474.120; -909.784
637.167; -275.121; -836.127; -789.771
637.439;  -55.321; -278.128; -213.770
637.712; -128.620; -312.126; -293.772
637.984; -211.110; -635.116; -707.791
638.257;   92.183;  515.877;  488.222
638.529; -286.718; -881.125; -924.776
638.802; -167.422; -508.128; -449.769
639.074; -291.516; -927.122; -952.781
639.346; -304.128; -942.135; -930.757
639.619;  -45.135;  -79.142; -319.744
639.891;  -82.316;  -83.122; -168.779
640.163; -223.416; -689.122; -756.780
640.435;  -38.616;  273.878;  103.220
640.708;  -56.016;  -72.122; -132.780
640.980; -146.216; -366.122; -362.781
641.252;  -43.515;  -25.121;  -71.781
641.524;   95.285;  580.879;  573.219
641.796; -286.615;-1094.121; -907.782
642.068; -116.415; -191.121; -300.782
642.340; -177.815; -486.121; -566.783
642.613;   49.586;  294.880;  323.217
642.885; -244.914; -787.120; -878.783
643.157; -219.414; -810.120; -658.784
643.428;   67.486;  170.880;  218.216
643.700; -150.914; -498.120; -425.784
643.972;  -49.913;  -16.119; -133.785
644.244; -197.013; -474.119; -559.785
644.516;  -93.213; -250.119; -114.786
644.788;  125.787;  662.881;  548.214
645.060;  -20.213;  -12.119; -124.786
645.332; -201.312; -525.118; -535.787
645.603;   72.388;  479.882;  342.213
645.875; -163.912; -334.118; -369.787
646.147;  328.988; 1487.882; 1242.212
646.418; -307.412; -931.117; -918.788
646.690; -222.011; -714.117; -715.789
646.962; -179.511; -413.117; -451.789
647.233;   -5.611;   15.883;   11.211
647.505; -197.411; -595.117; -475.790
647.776;   54.489;  328.884;  229.210
648.048; -122.211; -248.116; -418.790
648.320; -231.010; -752.116; -679.791
648.591; -309.510;-1055.116; -958.791
648.862; -172.410; -505.116; -577.792
649.134;   -2.310;  115.885;  198.208
649.405; -194.210; -661.115; -618.792
649.677; -173.509; -475.115; -598.793
649.948;  -88.209; -181.115; -296.793
650.219;  -23.209;  -37.115; -147.793
650.491; -171.809; -431.114; -520.794
650.762; -239.609; -705.114; -731.794
651.033; -167.708; -437.114; -424.795
651.304; -280.408; -743.114; -728.795
651.576; -197.508; -680.114; -645.795
651.847;  -59.808; -250.113; -140.796
652.118;   -3.008;  -32.113; -189.796
652.389; -204.107; -639.113; -722.796
652.660;  -58.007; -147.113;  -89.797
652.931; -272.007; -897.112; -871.797
653.202; -158.907; -382.112; -541.798
653.473; -184.307; -633.112; -533.798
653.744; -173.106; -595.112; -590.798
654.015; -137.706; -356.112; -303.799
654.286; -202.706; -642.111; -663.799
654.557; -224.706; -586.111; -521.799
654.828; -305.306;-1114.111;-1088.800
655.099; -143.005; -404.111; -291.800
655.370; -182.005; -427.111; -543.801
655.641; -187.005; -656.110; -714.801
655.911; -191.405; -618.110; -638.801
656.182;   80.895;  437.890;  387.198
656.453;  151.596;  830.890;  746.198
656.724; -142.904; -466.110; -426.802
656.994; -184.404; -553.109; -568.803
657.265; -249.304; -862.109; -873.803
657.536; -169.804; -500.109; -377.804
657.806; -181.203; -561.109; -593.804
658.077; -241.903; -866.109; -950.804
658.347; -173.903; -523.108; -598.805
658.618; -201.503; -646.108; -694.805
658.888;  -26.503;  -41.108;  112.195
659.159; -144.102; -432.108; -548.806
659.429; -126.002; -292.108; -349.806
659.700; -125.402; -435.107; -390.807
659.970; -159.702; -370.107; -359.807
660.241; -258.102; -754.107; -921.807
660.511;  -68.501; -147.107; -174.808
660.781; -200.701; -793.106; -748.808
661.052; -121.801; -222.106; -381.808
661.322;  -26.201;   21.894;   -9.809
661.592;   51.999;  257.894;  148.191
661.862; -122.300; -369.106; -382.810
662.133; -189.200; -551.105; -502.810
662.403; -224.100; -770.105; -676.810
662.673;  -91.200; -256.105; -213.811
662.943; -222.800; -612.105; -551.811
663.213;  -68.799;  -85.105;  -81.811
663.483; -149.599; -593.104; -568.812
663.753; -105.099; -194.104; -152.812
664.023;   12.701;   68.896;  -32.813
664.293; -123.999; -319.104; -126.813
664.563; -228.398; -694.104; -648.813
664.833; -242.898; -743.103; -608.814
665.103; -238.898; -730.103; -793.814
665.373; -245.198; -766.103; -806.814
665.643; -261.998; -863.103; -918.815
665.913; -205.097; -534.103; -714.815
666.182; -207.197; -685.102; -719.816
666.452;  -98.997;  -22.102;  -89.816
666.722; -226.097; -724.102; -784.816
666.992; -308.597; -948.102; -921.817
667.261; -255.996; -824.102; -808.817
667.531;  -62.996;  134.899;   45.183
667.801; -114.196; -440.101; -412.818
668.070;  174.904;  714.899;  697.182
668.340; -269.196; -883.101; -840.819
668.609;  103.405;  588.900;  301.181
668.879; -167.695; -490.100; -558.819
669.149; -189.595; -539.100; -516.820
669.418; -213.495; -698.100; -726.820
669.688; -154.595; -482.100; -666.820
669.957; -163.594; -423.099; -546.821
670.226; -108.494; -268.099; -331.821
670.496; -187.994; -431.099; -635.822
670.765; -158.094; -418.099; -501.822
671.034; -254.794; -872.099; -828.822
671.304;  -27.694;   55.902; -111.823
671.573; -311.793;-1085.098; -957.823
671.842; -145.293; -380.098; -294.823
672.112; -220.893; -692.098; -586.824
672.381;  -72.893; -239.098; -214.824
672.650; -286.093;-1005.097;-1021.825
672.919; -220.492; -631.097; -507.825
673.188; -242.292; -681.097; -878.825
673.457; -348.392;-1101.097;-1143.826
673.726; -187.692; -579.096; -646.826
673.995; -161.792; -533.096; -479.826
674.265; -116.891; -263.096; -333.827
674.534;  -79.491; -183.096; -235.827
674.802; -162.491; -618.096; -703.828
675.071; -261.691; -886.095; -801.828
675.340; -152.391; -464.095; -339.828
675.609;  -11.190;  103.905;   82.171
675.878; -271.090; -949.095; -893.829
676.147;  -75.490;  -26.095;   -8.829
676.416; -111.490; -210.094; -294.830
676.685;  275.810; 1000.906; -622.830
676.953; -185.789; -603.094; -452.831
677.222; -128.189; -193.094; -273.831
677.491;  -26.389;  -24.094; -127.831
677.759;  -34.189;   11.907;  172.168
678.028;  -81.489; -279.093; -222.832
678.297;  -32.388;   71.907;  197.168
678.565; -286.688; -898.093; -944.833
678.834; -123.288; -311.093; -268.833
679.102; -124.288; -411.092; -391.834
679.371; -261.588; -898.092; -727.834
679.639; -262.687; -797.092; -786.834
679.908; -235.787; -794.092; -724.835
680.176; -272.587; -895.091; -941.835
680.445; -132.087; -346.091; -352.835
680.713;  -44.387;  -58.091;  -23.836
680.982; -206.686; -523.091; -525.836
681.250; -186.186; -578.091; -507.837
681.518; -196.386; -534.090; -751.837
681.787;  -80.286; -204.090; -167.837
682.055; -165.186; -490.090; -422.838
682.323; -279.985; -993.090; -992.838
682.591;  -88.785; -216.090; -538.838
682.859;  -73.985;    9.911;  -35.839
683.128;   13.015;  232.911;  497.161
683.396; -331.485;-1102.089;-1122.840
683.664;  -85.284; -241.089;   21.160
683.932;   -4.584;  144.911;  -76.840
684.200; -155.684; -576.088; -320.841
684.468;  -67.584;  -73.088; -124.841
684.736;  -79.684; -214.088; -175.841
685.004; -319.583;-1024.088; -982.842
685.272; -252.583; -880.088; -774.842
685.540; -178.883; -499.087; -557.843
685.808; -195.383; -651.087; -682.843
686.076; -257.883; -894.087; -969.843
686.343; -209.682; -601.087; -815.844
686.611;  -74.882; -195.087; -224.844
686.879; -164.982; -530.086; -553.844
687.147; -129.982; -483.086; -480.845
687.414; -119.282;  -12.086; -169.845
687.682; -216.881; -658.086; -757.846
687.950;   21.719;  259.915;  263.154
688.217; -242.481; -792.085; -760.846
688.485; -207.381; -632.085; -636.847
688.753;  -53.081;  -11.085; -102.847
689.020; -285.880; -820.085; -851.847
689.288; -239.580; -853.084; -787.848
689.555;  -72.380; -195.084; -148.848
689.823; -108.680; -241.084; -345.849
690.090; -223.480; -546.084; -651.849
690.358; -297.379; -877.084; -897.849
690.625;  -10.579;  120.917;   45.150
690.892; -169.579; -403.083; -369.850
691.160;  -54.679;   72.917;  -35.850
691.427;  -10.279;  141.917;  130.149
691.694; -296.678; -855.083; -929.851
691.962; -300.578;-1177.082;-1060.852
692.229;  -26.078;  127.918;   56.148
692.496;   -7.178;  130.918;  -49.852
692.763;  -85.178; -164.082; -201.853
693.031; -203.577; -739.082; -716.853
693.298; -209.877; -509.081; -368.853
693.565;  -89.377; -155.081; -163.854
693.832;  -54.777;   -5.081;   -9.854
694.099; -193.077; -643.081; -642.855
694.366; -292.377; -882.081; -896.855
694.633; -259.276; -920.080; -633.855
694.900; 1214.724; 4367.920; -114.856
695.167;  -78.276; -214.080; -380.856
695.434; -217.576; -646.080; -623.856
695.701;    4.124;  121.921;  -61.857
695.968; -172.775; -365.079; -361.857
696.234; -200.675; -415.079; -646.858
696.501; -241.975; -776.079; -614.858
696.768; -196.775; -554.079; -617.858
697.035; -257.975; -632.078; -667.859
697.302; -187.974; -448.078; -552.859
697.568; -197.574; -458.078; -497.859
697.835; -208.974; -683.078; -624.860
698.102; -185.074; -498.078; -407.860
698.368;   74.426;  384.923;  396.139
698.635; -170.673;  -47.077; -424.861
698.901; -106.573; -240.077; -348.861
699.168; -164.173; -534.077; -456.862
699.435;  -28.673;  -72.077;  -13.862
699.701; -304.873; -868.076; -764.862
699.968; -158.872;  144.924; -441.863
700.234; -242.272; -783.076; -822.863
700.500; -132.372; -448.076; -539.864
700.767;  -52.872;   -1.075;   26.136
701.033; -296.172;-1015.075; -963.864
701.299; -176.571; -450.075; -483.865
701.566;  174.329;  950.925;  763.135
701.832;  -36.171;  -31.075;  -76.865
702.098; -286.971;-1054.074;-1034.866
702.365; -348.171;-1098.074;-1030.866
702.631; -310.270;-1038.074;-1063.867
702.897; -229.770; -765.074; -676.867
703.163;   46.330;  348.926;  254.133
703.429; -128.470; -256.073; -273.868
703.695; -211.470; -796.073; -792.868
703.961;  -88.569; -214.073; -210.868
704.227; -233.669; -630.073; -725.869
704.493;  101.231;  613.927;  510.131
704.759; -184.769; -565.072; -540.870
705.025;  -73.269; -203.072; -194.870
705.291; -203.068; -666.072; -562.870
705.557;  166.032;  719.928;   34.129
705.823; -210.568; -742.072; -694.871
706.089; -139.268; -307.071; -326.871
706.355;  -94.768; -315.071; -244.872
706.620; -274.067; -776.071; -729.872
706.886;  -92.567; -309.071; -362.873
707.152; -278.067; -818.070; -973.873
707.418; -344.867;-1153.070;-1186.873
707.683; -203.867; -550.070; -530.874
707.949; -185.066; -547.070; -578.874
708.215; -101.366; -129.070; -207.874
708.480; -151.366; -520.069; -420.875
708.746;   -1.866;   68.931;   28.125
709.011; -174.566; -578.069; -612.876
709.277; -177.465; -538.069; -543.876
709.542; -145.365; -428.069; -387.876
709.808;  -39.365;  -59.068;   89.123
710.073; -198.665; -577.068; -695.877
710.339;  -97.365; -242.068; -228.877
710.604; -260.664; -780.068; -845.878
710.869; -121.864; -277.068; -366.878
711.135; -201.164; -715.067; -628.879
711.400; -230.664; -507.067; -608.879
711.665; -138.164; -404.067; -479.879
711.931; -225.263; -661.067; -677.880
712.196; -265.463; -876.067; -954.880
712.461; -154.563; -402.066; -490.880
712.726; -262.763; -727.066; -771.881
712.991; -250.563; -647.066; -664.881
713.256; -134.062; -350.066; -332.882
713.521; -139.162; -417.065; -381.882
713.787; -168.062; -454.065; -472.882
714.052; -121.162; -214.065; -400.883
714.317; -329.162;-1045.065; -981.883
714.581; -136.061; -374.065; -268.883
714.846; -252.061; -822.064; -888.884
715.111;   48.239;  261.936;  257.116
715.376; -105.161;  -86.064; -223.885
715.641; -142.661; -365.064; -367.885
715.906; -156.460;   15.936; -551.885
716.171;   21.740;  221.937;  209.114
716.436;  -33.160;  -78.063; -104.886
716.700; -227.060; -818.063; -692.886
716.965; -249.660; -794.063; -807.887
717.230; -149.060; -339.063; -392.887
717.494;  -48.359;  -40.062; -134.888
717.759; -211.759; -784.062; -640.888
718.024;    8.741;  269.938;  250.112
718.288;   93.541;  685.938;  395.111
718.553; -293.559; -803.062; -977.889
718.817; -286.358; -883.061; -899.889
719.082;  -37.158; -115.061; -125.890
719.346; -290.658;-1000.061; -947.890
719.611;  -91.958; -300.061; -255.891
719.875; -185.758; -568.060; -537.891
720.140; -169.457; -453.060; -603.891
720.404;  -62.457; -136.060; -249.892
720.668;  -98.557; -475.060; -411.892
720.933;   -3.457;  146.940;  137.108
721.197; -217.957; -667.059; -600.893
721.461; -285.256; -851.059; -826.893
721.725;   -1.956;  -21.059; -250.894
721.990;  -96.956; -284.059; -204.894
722.254;  -33.556;  -26.059; -108.894
722.518; -182.856; -286.058; -442.895
722.782; -177.255; -743.058; -594.895
723.046;  118.445;  614.942;  570.105
723.310;   48.845;  374.942;  210.104
723.574; -207.155; -654.058; -614.896
723.838; -188.055; -576.057; -642.897
724.102; -101.554; -226.057; -239.897
724.366; -291.054;-1032.057; -978.897
724.630; -197.354; -749.057; -571.898
724.894; -159.154; -722.057; -514.898
725.158;  -63.154;   38.944; -295.898
725.422; -118.453; -394.056; -327.899
725.685; -140.853; -441.056; -349.899
725.949; -240.253; -566.056; -519.900
726.213; -256.553; -732.056; -811.900
726.477; -324.853;-1020.055; -933.900
726.740; -110.652; -274.055; -104.901
727.004; -148.952; -384.055; -510.901
727.268; -164.752; -442.055; -400.901
727.531; -256.552; -961.055; -775.902
727.795; -241.652; -713.054; -673.902
728.059; -182.951; -552.054; -557.903
728.322; -225.951; -841.054; -669.903
728.586; -180.751; -692.054; -701.903
728.849; -221.851; -695.053; -756.904
729.112; -243.151; -812.053; -912.904
729.376; -262.350; -959.053; -905.904
729.639; -151.550; -536.053; -536.905
729.903; -245.050; -733.053; -699.905
730.166;  -92.750; -437.052; -399.906
730.429;  -93.350; -317.052; -468.906
730.693; -199.449; -355.052; -894.906
730.956;  157.451;  810.948;  651.093
731.219;  -80.149; -310.052; -103.907
731.482; -281.549;-1003.051; -894.907
731.745; -271.549; -794.051; -935.908
732.009;  -32.148;  -30.051;   50.092
732.272; -247.448; -904.051; -771.909
732.535; -132.048; -300.051; -310.909
732.798; -320.648;-1083.050;-1166.909
733.061; -150.348; -430.050; -456.910
733.324;  -18.547;   31.950; -180.910
733.587;   82.253;  290.950;  365.090
733.850; -212.447; -973.049;-1050.911
734.113;  -16.447;   33.951;   32.089
734.376; -139.747; -328.049; -447.912
734.639;  273.654; 1188.951; 1011.088
734.901; -101.246; -180.049; -402.912
735.164; -271.246; -883.048; -837.913
735.427;  -47.946; -166.048; -355.913
735.690;  -96.346; -205.048; -234.913
735.952; -281.845; -923.048; -925.914
736.215; -323.445;-1113.048;-1009.914
736.478; -232.645; -771.047; -774.915
736.740;  -18.845;   33.953;  129.085
737.003; -207.045; -658.047; -672.915
737.266;  181.856;  -94.047;   46.084
737.528; -233.244; -682.047; -660.916
737.791; -143.244; -316.046; -327.916
738.053;   76.656;  465.954;  649.083
738.316;  -88.544; -162.046; -136.917
738.578; -249.943; -770.046; -736.918
738.841; -137.943; -382.046; -446.918
739.103; -243.343; -875.045; -777.918
739.365;  -47.743;   79.955;  -69.919
739.628; -243.343; -884.045; -805.919
739.890; -229.743; -758.045; -710.919
740.152; -217.042; -692.044; -754.920
740.414; -178.942; -408.044; -359.920
740.677; -163.442; -785.044; -634.921
740.939; -241.742; -587.044; -487.921
741.201; -159.242; -432.044; -572.921
741.463; -208.541; -689.043; -745.922
741.725;  -68.441;  -21.043; -199.922
741.987;   10.859;  220.957;  116.078
742.249; -222.541; -751.043; -859.923
742.511; -229.641; -703.043; -794.923
742.773; -176.240; -546.042; -546.924
743.035;  105.460;  796.958;  533.076
743.297; -297.040; -963.042;-1013.924
743.559;  -91.640; -278.042; -262.925
743.821; -241.640; -735.042; -744.925
744.083;  -77.739;  -44.041; -149.925
744.345; -288.339; -869.041; -892.926
744.607;  -45.639;   75.959;  122.074
744.868; -203.039; -490.041; -554.927
745.130; -314.639; -994.041;-1008.927
745.392;  -18.238;   -1.040;  -44.927
745.653; -127.838; -411.040; -378.928
745.915;  182.462;  896.960;  631.072
746.177;  -97.838;   35.960;  -43.928
746.438; -187.738; -428.040; -543.929
746.700; -288.337; -947.039; -988.929
746.961; -244.737; -659.039; -740.930
747.223;  -89.337; -190.039;  -74.930
747.484; -169.537; -391.039; -471.930
747.746;  -56.937;  -23.038; -106.931
748.007; -226.236; -647.038; -689.931
748.269; -145.036; -468.038; -440.931
748.530; -181.936; -852.038; -638.932
748.791; -133.436; -354.038; -420.932
749.053;   58.164;  286.963;  163.067
749.314;  -96.635; -236.037; -169.933
749.575; -278.335; -945.037; -905.933
749.836;  -69.935; -217.037;   86.066
750.098;  -50.535;  -60.037;  -21.934
750.359;   62.165;  414.964;  555.066
750.620;  -34.534; -121.036; -220.935
750.881; -234.134; -585.036; -513.935
751.142; -288.834; -950.036; -938.936
751.403; -221.634; -789.036; -705.936
751.664; -298.734;-1034.035; -999.936
751.925;  -61.233; -175.035; -262.937
752.186;  -88.933; -298.035; -278.937
752.447; -184.833; -590.035; -445.937
752.708; -174.733; -532.035; -648.938
752.969; -241.033; -566.034; -576.938
753.230; -236.832; -777.034; -672.939
753.491; -237.632; -650.034; -631.939
753.751;  -63.732;  109.966;   19.061
754.012;   33.868;  258.967;  181.060
754.273;  -81.232; -174.033;  -71.940
754.534; -172.631; -487.033; -580.940
754.794; -286.431; -926.033; -911.941
755.055;  173.269; 1051.967;  881.059
755.316; -221.931; -700.032; -566.942
755.576; -205.731; -606.032; -576.942
755.837; -174.930; -527.032; -695.942
756.097; -159.330; -530.032; -564.943
756.358; -237.630; -725.032; -770.943
756.618; -212.630; -705.031; -641.943
756.879; -141.230; -254.031; -349.944
757.139; -331.329;-1098.031;-1116.944
757.400; -179.629; -538.031; -553.945
757.660; -153.829; -365.031; -401.945
757.920; -105.329; -266.030; -228.945
758.181; -131.329; -468.030; -351.946
758.441; -262.728; -870.030; -809.946
758.701; -142.128; -308.030; -215.946
758.961; -105.628; -220.030; -278.947
759.222; -169.728; -574.029; -502.947
759.482; -243.528; -683.029; -723.948
759.742; -251.527; -706.029; -547.948
760.002;  -52.627;  -83.029; -143.948
760.262;  -56.727;   50.972;  182.051
760.522; -196.927; -498.028; -574.949
760.782; -245.127; -738.028; -612.949
761.042; -209.326; -618.028; -573.950
761.302;  -46.126;   55.972;  -18.950
761.562;  -41.026; -164.027; -154.951
761.822; -186.026; -710.027; -551.951
762.082; -343.526;-1104.027;-1093.951
762.342; -140.126; -328.027; -403.952
762.601; -178.525; -567.027; -506.952
762.861; -130.525; -281.026; -207.952
763.121; -149.225; -406.026; -411.953
763.381; -161.625; -499.026; -485.953
763.640;  -51.625; -139.026; -307.954
763.900; -111.324; -242.026; -203.954
764.160; -154.324; -458.025; -491.954
764.419; -222.824; -726.025; -782.955
764.679; -268.324; -795.025; -726.955
764.939;  -89.824; -124.025; -210.955
765.198; -208.023; -608.025; -563.956
765.458; -230.723; -710.024; -612.956
765.717; -192.523; -454.024; -590.957
765.976; -117.623; -428.024; -411.957
766.236; -190.023; -475.024; -610.957
766.495;    9.278;  260.977;   73.042
766.755; -320.222;-1090.023; -987.958
767.014; -206.422; -594.023; -665.958
767.273; -155.522; -373.023; -397.959
767.533; -114.722; -228.023; -307.959
767.792;  -50.221; -151.022; -188.960
768.051; -132.321; -228.022; -276.960
768.310; -191.121; -546.022; -650.960
768.569;  -66.221; -161.022;    4.039
768.828;  -98.521; -285.022; -363.961
769.088; -342.720;-1050.021; -942.961
769.347; -209.320; -755.021; -599.962
769.606; -286.120; -876.021; -857.962
769.865; -352.520;-1016.021;-1033.963
770.124;  -98.620; -411.021; -336.963
770.383; -275.019; -778.020; -910.963
770.641; -169.919; -398.020; -400.964
770.900; -278.019; -953.020; -846.964
771.159; -265.019; -851.020; -951.964
771.418; -267.119; -917.020; -779.965
771.677;  -94.618; -224.019; -293.965
771.936; -246.718; -794.019; -865.966
772.194; -269.418; -465.019; -437.966
772.453;  -98.018; -213.019; -391.966
772.712;   61.982;  416.982;  329.033
772.970;  -17.817;   32.982;   63.033
773.229;  -61.917;  -22.018;  102.033
773.488; -260.217; -814.018; -770.968
773.746;   27.383;  296.982;  335.032
774.005;  -22.417;  190.983;  -22.969
774.263;  -14.416;  243.983;  177.031
774.522; -190.016; -422.017; -548.969
774.780; -156.216; -484.017; -417.970
775.039; -147.316; -551.017; -531.970
775.297;  -84.816; -135.016; -351.970
775.555; -189.615; -489.016; -612.971
775.814; -223.715; -618.016; -570.971
776.072; -222.715; -749.016; -740.971
776.330; -193.015; -630.016; -520.972
776.589; -228.015; -703.015; -721.972
776.847; -264.214; -645.015; -624.973
777.105; -301.814;-1016.015;-1032.973
777.363; -163.414; -459.015; -454.973
777.621; -256.514; -660.015; -717.974
777.879;  -51.114;  -42.014;   32.026
778.138; -166.813; -554.014; -717.974
778.396; -204.513; -585.014; -526.975
778.654; -303.213;-1015.014; -970.975
778.912; -119.313; -269.014; -371.976
779.170; -269.013; -880.013; -803.976
779.427; -298.412; -922.013; -897.976
779.685; -280.912; -880.013; -832.977
779.943; -223.812; -654.013; -593.977
780.201; -282.412; -964.012; -883.978
780.459; -233.212; -651.012; -610.978
780.717; -134.711; -440.012; -390.978
780.974; -187.411; -449.012; -490.979
781.232; -119.011; -358.012; -338.979
781.490; -205.211; -551.011; -472.979
781.747; -187.511; -555.011; -476.980
782.005;   62.990;  462.989;  254.020
782.263; -300.110; -542.011;-1004.981
782.520; -185.710; -326.011; -501.981
782.778; -305.210;-1013.010;-1051.981
783.035; -328.610; -962.010; -938.982
783.293;  -71.909; -248.010; -206.982
783.550;  -81.309; -134.010; -198.982
783.808; -224.809; -764.010; -776.983
784.065; -300.209; -745.009; -874.983
784.322;  -82.309;   25.991;  -86.984
784.580; -230.309; -915.009; -771.984
784.837; -140.308; -392.009; -466.984
785.094; -261.408; -783.009; -762.985
785.352; -138.008; -304.008; -404.985
785.609; -293.008; -934.008; -839.985
785.866; -142.208; -345.008; -401.986
786.123; -238.707; -639.008; -583.986
786.380; -217.307; -665.008; -604.987
786.637; -103.007; -225.007; -380.987
786.895; -180.207; -456.007; -543.987
787.152;  -63.707; -135.007; -267.988
787.409;  -38.706; -123.007; -225.988
787.666; -147.406; -299.006; -378.988
787.923; -191.506; -616.006; -695.989
788.179; -157.406; -551.006; -584.989
788.436; -151.006; -585.006; -585.990
788.693;  -65.905;  -92.006;  -87.990
788.950;  -42.005; -125.005; -112.990
789.207; -156.705; -381.005; -372.991
789.464; -101.405; -161.005; -301.991
789.720;  -11.705;  150.995;  110.009
789.977; -319.004;-1003.005; -671.992
790.234;  -71.704;   44.996;  -66.992
790.490; -274.904; -884.004;-1031.993
790.747;  -47.104;  -85.004;   22.007
791.004; -127.904; -426.004; -348.993
791.260; -145.303; -430.004; -560.994
791.517; -238.603; -843.003; -788.994
791.773; -177.503; -379.003; -342.994
792.030; -225.303; -596.003; -660.995
792.286; -218.403; -686.003; -636.995
792.543;  -72.902;  -74.002; -159.995
792.799; -158.602; -584.002; -382.996
793.055; -374.502;-1179.002;-1210.996
793.312; -291.402; -827.002; -816.997
793.568; -214.002; -746.002; -599.997
793.824; -112.101; -226.001; -284.997
794.081; -173.001; -447.001; -508.998
794.337; -189.801; -664.001; -561.998
794.593; -115.201; -319.001; -271.999
794.849; -247.701; -746.001; -772.999
795.105; -139.500; -270.000; -261.999
795.361; -185.500; -490.000; -457.000
795.617; -281.100; -875.000; -945.000
795.873; -179.300; -360.000; -407.000
796.129; -120.200; -368.000; -306.000
796.385;  -74.700; -124.000; -156.000
796.641;  105.000;  412.000;  550.000
796.897; -194.200; -666.000; -635.000
797.153;   58.300;  453.000;  357.000
797.409; -309.000; -785.000; -868.000
797.665; -214.000; -625.000; -732.000
797.921; -269.600; -775.000; -762.000
798.176; -216.400; -744.000; -747.000
798.432; -255.500; -824.000; -596.000
798.688; -319.900;-1174.000;-1078.000
798.943; -104.300; -165.000; -147.000
799.199; -273.000;-1005.000; -959.000
799.455;   90.600;  369.000;  316.000
799.710; -250.400; -813.000; -380.000
799.966; -128.800; -162.000; -160.000
800.221; -194.500; -638.000; -721.000
800.477; -230.300; -743.000; -710.000
800.732; -287.300; -773.000; -800.000
800.988;  -15.300;  205.000;  -19.000
801.243; -121.800; -454.000; -344.000
801.498; -267.400; -814.000; -739.000
801.754;  -59.900; -289.000; -163.000
802.009; -140.800; -257.000; -335.000
802.264; -328.100; -967.000;-1033.000
802.520;  -84.200;  222.000;   -3.000
802.775; -156.600; -524.000; -359.000
803.030;   19.800;  395.000;  356.000
803.285; -286.400; -840.000; -903.000
803.540; -231.300; -686.000; -699.000
803.795; -210.600; -648.000; -583.000
804.051; -115.300; -279.000; -346.000
804.306;  -15.500;  168.000;  128.000
804.561;   32.100;  451.000;  362.000
804.816;  194.700;  714.000;  861.000
805.071; -113.300; -185.000; -280.000
805.325; -163.100; -257.000; -427.000
805.580; -298.600; -841.000; -877.000
805.835;  -89.100; -204.000; -297.000
806.090; -242.500; -760.000; -676.000
806.345; -121.100; -344.000; -264.000
806.600; -197.600; -549.000; -632.000
806.854; -168.900; -408.000; -538.000
807.109; -159.700; -493.000; -577.000
807.364; -126.800; -407.000; -328.000
807.618; -168.800; -415.000; -381.000
807.873; -168.500; -470.000; -494.000
808.128; -104.700; -257.000; -518.000
808.382; -139.800; -224.000; -332.000
808.637; -171.500; -440.000; -511.000
808.891; -101.000; -257.000; -180.000
809.146; -319.300; -902.000; -794.000
809.400; -283.000; -848.000; -923.000
809.654; -239.300; -779.000; -551.000
809.909; -282.600; -841.000; -927.000
810.163; -233.100; -813.000; -651.000
810.418; -313.600; -940.000; -861.000
810.672; -222.000; -685.000; -690.000
810.926; -296.000; -993.000; -973.000
811.180; -160.700; -439.000; -372.000
811.434;   20.600;  240.000;  135.000
811.689; -146.800; -231.000; -365.000
811.943; -304.500; -936.000; -953.000
812.197; -270.900; -893.000; -671.000
812.451; -175.600; -379.000; -514.000
812.705; -299.800; -809.000; -619.000
812.959; -134.000; -263.000; -388.000
813.213; -122.500; -283.000; -209.000
813.467;   64.200;  470.000;  253.000
813.721; -256.100; -764.000; -792.000
813.975; -257.600; -826.000; -877.000
814.229;   -7.400;  430.000;  353.000
814.482; -183.500; -517.000; -566.000
814.736; -263.300; -766.000; -744.000
814.990; -270.500; -779.000; -872.000
815.244; -126.100; -228.000; -285.000
815.497; -217.300; -636.000; -601.000
815.751;  -56.100; -141.000;   82.000
816.005; -181.900; -470.000; -586.000
816.258; -152.200; -510.000; -363.000
816.512; -227.500; -693.000; -610.000
816.766;  -47.300;  121.000;  157.000
817.019;   12.400;  148.000;  149.000
817.273; -295.800;-1000.000; -802.000
817.526;  -79.800; -206.000; -173.000
817.779; -333.500;-1049.000; -960.000
818.033; -275.200; -693.000; -807.000
818.286; -248.500; -725.000; -792.000
818.540; -175.700; -403.000; -403.000
818.793; -164.900; -402.000; -489.000
819.046; -188.400; -582.000; -520.000
819.299;  -75.300; -157.000; -166.000
819.553; -197.900; -552.000; -592.000
819.806; -337.600;-1016.000; -838.000
820.059;  -87.400; -334.000; -354.000
820.312;  -49.900;  152.000;  185.000
820.565;  -17.700;  110.000;  -27.000
820.818;  -71.800;  -59.000; -173.000
821.071; -306.800;-1041.000; -957.000
821.324; -218.800; -536.000; -540.000
821.577; -176.400; -457.000; -483.000
821.830; -139.700; -270.000; -172.000
822.083; -239.200; -733.000; -288.000
822.336; -107.800; -261.000; -167.000
822.589; -247.200; -805.000; -688.000
822.842; -278.100; -875.000; -770.000
823.094; -337.700;-1076.000;-1114.000
823.347; -274.300; -925.000; -729.000
823.600;   28.000;  402.000;  187.000
823.853; -125.900; -311.000; -267.000
824.105; -160.200; -331.000; -575.000
824.358; -266.700; -617.000; -716.000
824.611;   -0.300;  234.000;   40.000
824.863; -228.800; -612.000; -591.000
825.116;  -55.200;  -33.000;   27.000
825.368; -138.600; -366.000; -372.000
825.621;  -85.900; -186.000; -240.000
825.873; -251.400; -704.000; -737.000
826.126; -190.900; -669.000; -641.000
826.378; -161.400; -389.000; -505.000
826.630; -282.100; -890.000; -898.000
826.883; -262.500; -754.000; -693.000
827.135; -128.200; -279.000; -270.000
827.387; -287.500; -893.000; -839.000
827.639;  -56.000;  -86.000;   32.000
827.892; -255.200; -742.000; -582.000
828.144; -250.900; -848.000; -804.000
828.396;  -49.900;  104.000;  -80.000
828.648; -167.900; -440.000; -333.000
828.900; -289.300; -702.000; -795.000
829.152; -249.300; -684.000; -683.000
829.404; -121.200; -215.000; -267.000
829.656;   27.900;  321.000;  214.000
829.908;   -2.700;  393.000;  229.000
830.160; -307.600;-1064.000;-1047.000
830.412; -186.400; -481.000; -430.000
830.664; -227.100; -557.000; -665.000
830.916; -117.300; -268.000; -206.000
831.167; -343.700;-1073.000; -951.000
831.419; -191.800; -623.000; -566.000
831.671; -269.500; -764.000; -809.000
831.923; -165.700; -311.000; -447.000
832.174; -103.500; -273.000; -331.000
832.426; -208.200; -493.000; -582.000
832.678; -335.000;-1043.000;-1091.000
832.929; -330.200; -947.000; -935.000
833.181; -227.300; -575.000; -677.000
833.432; -107.600;  -59.000; -186.000
833.684;  -10.000;  112.000;  -27.000
833.935; -218.700; -610.000; -566.000
834.187; -217.900; -829.000; -823.000
834.438;  -82.400;  -58.000;  -25.000
834.689; -108.600; -255.000; -123.000
834.941; -128.100; -343.000; -244.000
835.192; -196.200; -590.000; -533.000
835.443; -177.800; -419.000; -506.000
835.695;  -30.200;  138.000;  -16.000
835.946; -184.700; -608.000; -378.000
836.197; -213.800; -599.000; -622.000
836.448; -211.500; -528.000; -395.000
836.699; -134.700; -253.000; -341.000
836.950;  -42.900;   72.000;    7.000
837.201; -334.600;-1003.000; -987.000
837.452; -147.400; -356.000; -170.000
837.703; -257.700; -791.000; -737.000
837.954; -150.700; -205.000; -365.000
838.205; -321.700;-1029.000;-1008.000
838.456; -143.700; -196.000; -282.000
838.707; -173.900; -423.000; -519.000
838.958; -216.400; -634.000; -647.000
839.209;  -31.200;   18.000;   40.000
839.460; -115.200; -439.000; -201.000
839.710; -109.700; -135.000; -297.000
839.961;  116.000;  730.000;  612.000
840.212; -179.500; -382.000; -497.000
840.462; -160.200; -328.000; -277.000
840.713; -197.200; -571.000; -536.000
840.964;  -98.000;  -62.000; -143.000
841.214; -207.300; -384.000; -624.000
841.465; -111.100; -214.000; -141.000
841.715; -124.400; -417.000; -380.000
841.966; -248.500; -746.000; -685.000
842.216; -168.000; -330.000; -431.000
842.466; -103.100; -169.000; -313.000
842.717; -339.700; -964.000; -952.000
842.967; -234.900; -635.000; -641.000
843.217;  -55.000;   20.000;   28.000
843.468;  -59.700; -104.000; -132.000
843.718; -228.300; -718.000; -726.000
843.968; -301.800; -837.000; -765.000
844.218; -141.400; -315.000; -262.000
844.469; -216.300; -577.000; -561.000
844.719; -225.500; -537.000; -682.000
844.969; -211.900; -550.000; -580.000
845.219; -285.500; -814.000; -862.000
845.469; -142.200; -392.000; -342.000
845.719; -253.500; -792.000; -884.000
845.969;  -34.300;  119.000;  174.000
846.219; -239.600; -738.000; -720.000
846.469;   26.500;  464.000;  432.000
846.718; -101.900; -115.000;   31.000
846.968; -274.500; -827.000; -827.000
847.218;  -99.200; -224.000; -371.000
847.468; -242.000; -586.000; -555.000
847.718; -292.100; -827.000; -798.000
847.967; -296.700; -826.000; -915.000
848.217; -170.800; -449.000; -569.000
848.467; -143.900; -405.000; -376.000
848.716; -218.100; -708.000; -725.000
848.966; -161.800; -372.000; -358.000
849.215; -164.200; -428.000; -419.000
849.465; -244.600; -785.000; -615.000
849.714; -338.700;-1132.000;-1150.000
849.964; -234.600; -551.000; -613.000
850.213; -126.500; -393.000; -355.000
850.463;   15.100;  137.000;  340.000
850.712; -206.800; -542.000; -567.000
850.961; -253.700; -739.000; -678.000
851.211; -150.400; -513.000; -504.000
851.460; -209.000; -635.000; -650.000
851.709;  -36.400;  -25.000;   18.000
851.958; -269.600; -912.000; -750.000
852.208; -301.800; -859.000; -879.000
852.457; -104.300; -181.000;  -13.000
852.706; -269.100; -791.000; -823.000
852.955; -189.700; -507.000; -528.000
853.204; -195.200; -521.000; -461.000
853.453; -215.700; -418.000; -458.000
853.702; -251.600; -660.000; -750.000
853.951; -201.400; -532.000; -520.000
854.200; -205.000; -613.000; -562.000
854.449; -265.600; -695.000; -661.000
854.698; -146.300; -340.000; -279.000
854.946; -107.700; -181.000; -284.000
855.195; -272.700; -843.000; -868.000
855.444; -161.800; -395.000; -420.000
855.693; -173.700; -345.000; -432.000
855.941; -201.000; -387.000; -516.000
856.190; -126.400; -256.000; -382.000
856.439; -227.400; -652.000; -703.000
856.687;  -68.700;  -99.000;  -72.000
856.936; -227.600; -621.000; -323.000
857.184; -324.700;-1067.000;-1020.000
857.433; -166.200; -423.000; -512.000
857.681; -320.800; -989.000; -953.000
857.930; -151.500; -282.000; -433.000
858.178; -278.900; -856.000; -929.000
858.427; -257.100; -802.000; -781.000
858.675; -208.500; -377.000; -544.000
858.923; -172.600; -527.000; -819.000
859.172; -325.500;-1094.000;-1070.000
859.420; -143.600; -339.000; -239.000
859.668; -207.500; -624.000; -628.000
859.916;  -24.000;  109.000;  115.000
860.164; -193.700; -699.000; -603.000
860.413; -266.300; -878.000; -696.000
860.661; -240.500; -709.000; -577.000
860.909; -150.500; -339.000; -325.000
861.157; -139.000; -277.000; -444.000
861.405; -268.300; -534.000; -670.000
861.653;   63.600;  310.000;  310.000
861.901; -209.300; -543.000; -613.000
862.149; -249.300; -801.000; -824.000
862.396; -123.600; -297.000; -187.000
862.644; -125.500; -368.000; -347.000
862.892;  -17.900;   98.000;  138.000
863.140; -207.400; -549.000; -530.000
863.388; -267.200; -815.000; -759.000
863.635; -184.300; -642.000; -601.000
863.883;   50.700;  231.000;  190.000
864.131; -120.000; -288.000; -357.000
864.378; -212.300; -675.000; -540.000
864.626; -161.200; -347.000; -415.000
864.873; -202.900; -556.000; -505.000
865.121; -258.100; -714.000; -799.000
865.368;  -61.900; -173.000;   75.000
865.616;  -90.900;  -33.000;  -40.000
865.863; -164.200; -462.000; -506.000
866.111; -278.700; -795.000; -824.000
866.358; -157.600; -426.000; -420.000
866.605; -114.500;  -64.000; -804.000
866.853; -221.600; -621.000; -537.000
867.100; -264.500; -728.000; -775.000
867.347; -260.100; -672.000; -611.000
867.594; -261.200; -740.000; -714.000
867.841;  -51.200;   97.000;   17.000
868.089; -271.400; -746.000; -698.000
868.336; -176.600; -477.000; -420.000
868.583; -221.200; -637.000; -741.000
868.830;  -68.900; -131.000; -170.000
869.077; -287.200; -859.000; -787.000
869.324; -228.700; -502.000; -458.000
869.571; -194.400; -398.000; -430.000
869.818; -220.400; -485.000; -439.000
870.065; -186.500; -439.000; -513.000
870.311; -183.900; -456.000; -542.000
870.558; -133.600; -332.000; -311.000
870.805; -118.100; -320.000; -384.000
871.052; -156.800; -494.000; -369.000
871.298; -118.700; -204.000; -131.000
871.545;  -77.800; -151.000; -185.000
871.792; -113.300; -173.000; -222.000
872.038;  -57.900;   43.000; -126.000
872.285; -177.500; -496.000; -387.000
872.532; -145.700; -357.000; -387.000
872.778;   83.600;  556.000;  403.000
873.025; -114.800; -384.000; -359.000
873.271;   85.100;  501.000;  578.000
873.517;  -75.700; -133.000; -209.000
873.764;  -81.400; -193.000;  -80.000
874.010; -117.800; -143.000; -230.000
874.257;  -66.100;  123.000;   90.000
874.503; -195.400; -579.000; -479.000
874.749; -106.700;   31.000;  275.000
874.995;  -73.300;  -80.000;  -20.000
875.242; -226.000; -540.000; -478.000
875.488; -139.800; -414.000; -439.000
875.734; -123.100; -106.000; -234.000
875.980; -309.200; -872.000;-1032.000
876.226;  -93.200; -157.000; -255.000
876.472;   25.900;  343.000;  237.000
876.718;   -5.900;  184.000;  158.000
876.964;  -16.300;   56.000;   55.000
877.210; -237.500; -547.000; -677.000
877.456; -197.000; -630.000; -557.000
877.702; -304.900; -821.000; -832.000
877.948; -159.000; -377.000; -497.000
878.193;   67.500;  361.000;  255.000
878.439; -161.100; -487.000; -472.000
878.685; -127.800; -272.000; -343.000
878.931; -192.900; -618.000; -676.000
879.176; -107.000; -201.000; -201.000
879.422; -299.100; -933.000; -820.000
879.668;    1.600;   10.000;   79.000
879.913;  -31.800;   53.000;  137.000
880.159; -101.700; -112.000;  -17.000
880.404;  -75.000; -152.000; -162.000
880.650;   -6.600;   91.000;  141.000
880.895; -238.900; -670.000; -710.000
881.141; -181.600; -454.000; -428.000
881.386; -252.800; -503.000; -658.000
881.631; -147.000; -311.000; -166.000
881.877;  -24.400;  112.000;  -13.000
882.122; -226.100; -684.000; -600.000
882.367; -130.100; -136.000; -186.000
882.612; -102.800;  -80.000; -176.000
882.858; -292.100; -877.000; -823.000
883.103; -136.200; -297.000; -267.000
883.348; -265.700; -759.000; -852.000
883.593; -233.500; -677.000; -602.000
883.838; -102.000; -311.000;  -24.000
884.083;   20.600;  353.000;  288.000
884.328; -144.800; -564.000; -545.000
884.573; -136.300; -196.000; -143.000
884.818; -194.700; -694.000; -531.000
885.063; -170.300; -348.000; -315.000
885.308; -156.400; -475.000; -398.000
885.553;   15.000;  245.000;  325.000
885.797; -217.200; -545.000; -615.000
886.042;  -51.800;    8.000;   58.000
886.287;  -85.000; -253.000; -211.000
886.532;  -23.400;   26.000;  204.000
886.776; -147.200; -407.000; -525.000
887.021; -227.300; -621.000; -574.000
887.265; -225.000; -685.000; -689.000
887.510; -228.100; -557.000; -496.000
887.755; -103.500; -194.000; -164.000
887.999; -214.200; -552.000; -575.000
888.244;  -52.200;  -58.000;  161.000
888.488;   17.500;  371.000;  393.000
888.732; -231.500; -368.000; -520.000
888.977; -211.400; -622.000; -567.000
889.221; -260.400; -683.000; -659.000
889.465; -195.100; -422.000; -566.000
889.710;  -71.100;  -56.000; -299.000
889.954;   25.100;  579.000;  467.000
890.198; -237.700; -584.000; -707.000
890.442; -259.500; -716.000; -712.000
890.687; -289.300; -800.000; -753.000
890.931; -132.500; -273.000; -210.000
891.175; -218.100; -502.000; -500.000
891.419; -115.600; -105.000; -110.000
891.663; -146.200; -239.000; -112.000
891.907; -269.200; -801.000; -545.000
892.151; -275.400; -920.000; -815.000
892.395; -181.300; -274.000; -387.000
892.638;   48.000;  408.000;  291.000
892.882; -311.500; -780.000; -867.000
893.126;  106.800;  758.000;  558.000
893.370; -136.600; -167.000; -168.000
893.614; -220.700; -714.000; -715.000
893.857; -141.000; -183.000; -197.000
894.101; -180.100; -527.000; -631.000
894.345;  -48.800;  300.000;  150.000
894.588;   99.100;  569.000;  380.000
894.832; -100.800; -178.000;  -84.000
895.075; -101.500;   15.000;  -92.000
895.319; -204.500; -552.000; -420.000
895.563; -181.600; -413.000; -353.000
895.806; -261.000; -628.000; -741.000
896.049; -170.400; -576.000; -368.000
896.293;   46.200;  527.000;  405.000
896.536; -182.800; -465.000; -468.000
896.779; -111.700; -149.000;   -1.000
897.023; -255.500; -751.000; -714.000
897.266;   15.100;  325.000;  269.000
897.509; -289.600; -900.000; -901.000
897.752;  -31.700;  149.000;  171.000
897.996; -302.000; -972.000; -864.000
898.239;  -36.100;  168.000;  102.000
898.482; -187.100; -431.000; -453.000
898.725;  -54.400;  101.000;   53.000
898.968; -241.400; -609.000; -744.000
899.211; -232.200; -513.000; -361.000
899.454; -220.700; -633.000; -539.000
899.697; -106.100;   90.000;  -43.000
899.940; -257.700; -761.000; -757.000
900.182; -167.700; -335.000; -405.000
900.425;  -85.900; -150.000; -298.000
900.668;   24.600;  491.000;  350.000
900.911; -134.400; -292.000; -345.000
901.154;  -30.100;  141.000;   -3.000
901.396; -208.300; -407.000; -412.000
901.639; -251.200; -430.000; -496.000
901.882; -328.000; -790.000; -809.000
902.124; -121.100;  -29.000; -143.000
902.367; -148.700; -315.000; -361.000
902.609; -209.100; -476.000; -453.000
902.852; -112.500; -108.000; -260.000
903.094; -178.000; -458.000; -337.000
903.337;  -34.300;  -26.000;   53.000
903.579; -162.100; -228.000; -441.000
903.821; -251.800; -597.000; -744.000
904.064;  -57.600;   85.000;  127.000
904.306; -126.900; -126.000; -166.000
904.548; -135.100; -152.000; -366.000
904.790; -120.700; -195.000; -340.000
905.033; -214.500; -625.000; -577.000
905.275; -207.300; -513.000; -524.000
905.517;   23.000;  468.000;  256.000
905.759; -267.400; -667.000; -761.000
906.001; -191.500; -322.000; -369.000
906.243; -134.900; -162.000; -224.000
906.485; -141.000; -265.000; -207.000
906.727; -238.500; -499.000; -542.000
906.969; -131.000;  -30.000; -135.000
907.211; -184.900; -316.000; -382.000
907.453; -129.400; -188.000; -237.000
907.695; -130.900; -158.000; -385.000
907.936;  103.500;  818.000;  706.000
908.178;  -80.200;   92.000; -135.000
908.420; -112.700; -111.000; -162.000
908.662; -269.000; -633.000; -682.000
908.903; -175.800; -208.000; -123.000
909.145; -109.000; -240.000; -305.000
909.386;  -10.500;  315.000;  280.000
909.628;   79.000;  363.000;  397.000
909.870;  -40.100;   29.000;  264.000
910.111; -313.700; -809.000; -949.000
910.353; -157.400; -123.000; -161.000
910.594; -222.000; -574.000; -606.000
910.835; -175.100; -265.000; -326.000
911.077; -249.700; -503.000; -604.000
911.318; -223.400; -505.000; -471.000
911.559; -255.500; -577.000; -880.000
911.801; -166.200; -284.000; -280.000
912.042; -108.000;  -50.000; -159.000
912.283;    9.700;  404.000;  371.000
912.524; -167.900; -396.000; -457.000
912.765; -109.300; -193.000;   79.000
913.006; -147.500; -307.000; -338.000
913.247; -194.600; -270.000; -290.000
913.488;  -98.400;  -43.000;   30.000
913.729; -171.600; -373.000; -373.000
913.970; -122.100;  -96.000; -292.000
914.211; -124.200; -160.000; -198.000
914.452; -103.300; -118.000;  -11.000
914.693;   51.900;  510.000;  592.000
914.934;   81.800;  510.000;  440.000
915.175;  -64.700;   53.000;  -95.000
915.415; -119.200; -137.000;   27.000
915.656;  -58.000;  -28.000;  192.000
915.897; -161.300; -252.000;  -82.000
916.137; -107.600;   74.000;   -9.000
916.378; -238.500; -573.000; -517.000
916.619; -167.400; -159.000;  -63.000
916.859;  -24.400;  303.000;  330.000
917.100;  309.300; 1655.000; 1070.000
917.340;  131.600;  930.000;  728.000
917.581;   88.400;  965.000;  789.000
917.821; -168.700; -171.000;  143.000
918.061; -128.300; -199.000;  -72.000
918.302; -139.000; -152.000; -211.000
918.542; -108.500;  -22.000;    3.000
918.782;  -21.700;  369.000;  377.000
919.023;   -7.100;  360.000;  427.000
919.263; 1165.100; 8131.000;  202.000
919.503; -171.400; -137.000;  -54.000
919.743;   21.700;  390.000;  266.000
919.983; -100.800; -134.000;  -26.000
920.223;  -97.800;  135.000;   14.000
920.463;   34.400;  631.000;  554.000
920.703;  -55.900;   84.000;   39.000
920.943; -132.200; -110.000;   90.000
921.183; -193.600; -414.000; -405.000
921.423;   16.000;  307.000;  546.000
921.663; -136.500; -174.000; -257.000
921.903;  -48.300;  237.000;  173.000
922.143;  -15.000;  372.000;  389.000
922.383;  -94.000;  158.000;  115.000
922.622;  -98.800; -120.000;  -15.000
922.862;   71.000;  796.000;  785.000
923.102; -125.800;  -51.000;   33.000
923.341; -115.300;   59.000;   74.000
923.581;    0.800;  450.000;  360.000
923.821;  -21.000;  301.000;  398.000
924.060;    5.800;  351.000;  193.000
924.300; -126.500;  -16.000; -128.000
924.539;   15.400;  584.000;  473.000
924.779;   90.100;  812.000;  597.000
925.018;  -38.600;  247.000;  353.000
925.257;   36.500;  595.000;  666.000
925.497;  -48.000;  447.000;  412.000
925.736;  -87.900;  -35.000;  102.000
925.975;   58.500;  687.000;  669.000
926.214;  114.600;  907.000;  850.000
926.454;  103.400;  706.000;  757.000
926.693;   -8.500;  419.000;  543.000
926.932;  149.500; 1021.000;  825.000
927.171;  177.900; 1107.000; 1044.000
927.410;  189.200; 1144.000;  967.000
927.649;  105.700;  924.000;  742.000
927.888;   32.700;  590.000;  564.000
928.127;   38.800;  680.000;  678.000
928.366;  120.800;  842.000;  826.000
928.605;   90.300;  831.000;  737.000
928.844;  208.800; 1451.000; 1393.000
929.083;   26.600;  770.000;  613.000
929.321;  249.700; 1335.000; 1359.000
929.560;  194.700; 1158.000; 1122.000
929.799;    7.800;  574.000;  475.000
930.038;  233.300; 1025.000; 1394.000
930.276;   -5.900;  334.000;  397.000
930.515;   74.900;  827.000;  681.000
930.753;   52.300;  614.000;  589.000
930.992;    2.700;  664.000;  717.000
931.230;   71.600;  847.000;  847.000
931.469;  409.200; 2162.000;  892.000
931.707;  247.700;  840.000;  751.000
931.946;  187.600; 1278.000; 1344.000
932.184;  195.700; 1437.000; 1175.000
932.423;  180.700; 1265.000;  963.000
932.661;  213.100; 1296.000; 1428.000
932.899;   86.200;  987.000;  821.000
933.137;   59.000;  754.000;  564.000
933.376;  203.400; 1664.000; 1335.000
933.614;  308.900; 1759.000; 1196.000
933.852;  146.400; 1357.000; 1171.000
934.090;  300.000; 1722.000; 1747.000
934.328;  180.000; 1252.000; 1457.000
934.566;  157.800; 1431.000; 1110.000
934.804;  161.300; 1263.000; 1309.000
935.042;  297.000; 1861.000; 1850.000
935.280;  395.000; 2088.000; 2063.000
935.518;  371.200; 2113.000; 2007.000
935.756;  399.500; 2481.000; 2316.000
935.994;  255.600; 1808.000; 1751.000
936.231;  560.200; 2890.000; 2950.000
936.469;  383.300; 2367.000; 2378.000
936.707;  390.300; 2220.000; 2167.000
936.945;  556.600; 2825.000; 2882.000
937.182;  479.200; 2679.000; 2741.000
937.420;  652.900; 3602.000; 3031.000
937.657;  654.000; 3365.000; 3478.000
937.895;  657.500; 3331.000; 3488.000
938.133;  669.900; 3540.000; 3528.000
938.370;  805.300; 3896.000; 4191.000
938.607;  917.500; 4488.000; 4205.000
938.845; 1209.300; 5587.000; 5549.000
939.082; 1053.600; 5387.000; 5177.000
939.320; 1172.800; 5799.000; 5728.000
939.557; 1328.700; 6549.000; 6491.000
939.794; 1524.600; 7285.000; 7097.000
940.031; 1738.100; 8421.000; 8368.000
940.269; 1976.000; 9552.000; 9107.000
940.506; 2278.200;10901.000;10507.000

