
Integration time [ms]: 100.000
Averaging Nr. [scans]: 40
Smoothing Nr. [pixels]: 0
Data measured with spectrometer [name]: 2101013U2
Wave   ;Sample   ;Dark     ;Reference
[nm]   ;[counts] ;[counts] ;[counts] 

394.013;   47.002; -450.257; -315.536
394.305;  239.200; -461.258; -419.536
394.596; 1181.293; -676.269; -527.514
394.887; 2915.636; -796.268; -654.518
395.178; 1081.967;  145.736;   11.476
395.470;   77.828; -210.263; -356.526
395.761;  204.676;  305.734;  394.479
396.052;  324.689; -545.284; -306.489
396.343;  317.661; -557.276; -454.503
396.634;   99.104; -200.279; -290.497
396.926;  100.858; -618.268; -565.517
397.217;   98.791;   11.725;  -17.504
397.508;   51.307; -366.273; -154.507
397.799;   48.204; -555.279; -571.497
398.090;   -3.927; -973.280; -902.495
398.381;   67.187;   11.708;  -11.473
398.672;   -8.337; -585.292; -742.473
398.963;   46.885; -348.279; -373.498
399.254;   92.573;   54.709; -209.475
399.545;  -33.353;-1017.266; -883.520
399.836;   53.175; -407.277; -343.501
400.127;   60.988; -205.295; -209.468
400.418;   45.052; -423.274; -392.506
400.709;   50.185; -359.281; -333.493
401.000;   41.102; -268.291; -309.476
401.290;  102.147;  225.698;  115.545
401.581;   61.522; -166.286; -228.485
401.872;   24.834; -542.298; -486.462
402.163;   43.030; -313.296; -252.467
402.454;   83.973; -123.291; -163.475
402.744;   61.996; -844.297; -813.465
403.035;  397.253; -226.293;  -86.471
403.326;  520.616; -366.292; -384.474
403.617;  351.928;  204.701;  165.539
403.907;  247.620; -593.283; -679.490
404.198; 2533.625; -545.307; -599.446
404.489; 6569.050; -618.283; -588.491
404.779; 2112.226; -618.302; -660.456
405.070;  234.954;  -67.304; -174.451
405.360;  336.905; -259.293; -238.472
405.651;  373.737;  125.699;   98.542
405.942;  169.617;  209.714;  127.516
406.232;  240.732; -432.285; -413.487
406.523;  441.748;  641.706;  758.530
406.813;   84.519; -579.286; -644.484
407.104;  309.111;  261.708;  144.527
407.394;  157.304; -604.299; -591.462
407.685;  149.081;  336.715;  222.513
407.975;   56.749; -400.283; -382.490
408.265;  112.138; -134.289; -190.478
408.556;   70.320; -472.291; -459.475
408.846;  170.199;  474.706;  429.530
409.137;   92.022;   -1.288; -216.480
409.427;   59.531; -193.285; -271.487
409.717;   33.911; -776.273; -692.508
410.007;  129.725;    4.715; -170.486
410.298;   86.240; -360.295; -342.469
410.588;   51.979; -495.285; -510.486
410.878;   27.108; -792.287; -873.482
411.168;  107.036; -481.298; -478.463
411.459;  116.718; -295.283; -242.489
411.749;   67.419; -609.292; -507.474
412.039;   69.320; -755.289; -386.480
412.329;  203.343;   40.722;  132.501
412.619;  198.094;  -62.286; -148.485
412.909;  366.191;  639.711;  594.521
413.199;  318.749; -130.280; -251.495
413.490;  401.081;  521.710;  352.523
413.780;  149.203;-1013.279; -913.496
414.070;  326.362;  -46.276;  235.497
414.360;  380.614; -729.278; -666.498
414.650;  458.604; -726.288; -688.482
414.940;  542.952; -538.280; -441.496
415.230;  942.851;   50.712;   74.519
415.520; 6385.018;  155.730;   66.486
415.809;25376.760; -305.281; -125.493
416.099;19362.452; -388.277; -229.501
416.389; 5464.899;  435.726;  236.494
416.679; 3168.207;   91.738;   85.473
416.969;  546.588; -527.287; -503.483
417.259;  483.904;  341.721;  171.503
417.549;  700.333;  522.718;  318.508
417.838; 1738.185; -205.268; -147.518
418.128; 5806.537;  650.710;  492.522
418.418; 4809.517; -491.272; -579.509
418.708; 3254.699;    9.726;  -48.506
418.997;12471.870; -474.275; -480.505
419.287;12795.007; -733.273; -790.507
419.577;12205.843; -160.283; -123.489
419.866;40633.525; -588.277; -498.501
420.156;41166.463; -242.270;  -55.513
420.446; 7225.149; -112.263;  -26.526
420.735;  849.757; -376.271; -446.512
421.025;  842.263; 1830.722;  315.502
421.314;  655.305; -203.271; -226.512
421.604; 1294.103;   89.732;  233.484
421.893;  742.726; -705.271; -602.511
422.183;  237.950; -487.263; -461.526
422.472;  391.928;  -36.271; -107.511
422.762;  444.478; -416.266; -379.521
423.051;  258.513; -916.276; -916.503
423.341;  298.058; -491.273; -439.507
423.630;  411.285; -121.265;   15.477
423.919;  401.719;   58.725;   49.495
424.209;  377.280;  -31.263;   56.473
424.498;  512.507;   68.732;  161.483
424.787; 1150.214; -535.267; -601.518
425.077; 3469.883;   34.735;   29.478
425.366; 4735.461; -734.262; -744.528
425.655;10374.134;  639.727;  259.493
425.945;23567.769; -313.247; -268.554
426.234;12768.585;  117.741;  300.467
426.523; 5346.965;  -86.259; -350.534
426.812; 7292.424;  107.734;  159.480
427.101;10819.474; -127.269; -323.515
427.390;13423.892;  -55.270;  -86.514
427.680; 2808.985; -624.257; -411.538
427.969;  486.171; -330.255; -301.540
428.258;  312.501; -385.257; -477.536
428.547;  511.421;  449.728;  397.490
428.836; 1181.438; -421.253; -398.543
429.125; 1683.417; -199.259;  -72.534
429.414;  789.336; -330.251; -294.548
429.703; 3289.486; -231.251; -213.548
429.992; 9972.615; -938.250; -828.549
430.281; 6389.117; -397.264; -331.524
430.570;  576.876;  -21.252;   32.454
430.859;  523.214;  279.741;  352.466
431.148;  430.115;  636.752;  631.446
431.437;  282.151;  391.748;  367.454
431.725;  156.803; -544.257; -481.536
432.014;  142.095; -845.253; -756.545
432.303;  384.293; -149.239; -105.569
432.592;  594.674; -460.263; -178.525
432.881; 1090.241; -601.248; -437.554
433.169; 6598.772; -343.255;  -61.540
433.458;13397.227;  445.765;  540.424
433.747; 5452.417; -397.261; -289.529
434.036;  849.818; -275.242; -280.564
434.324; 2164.828; -395.249; -379.551
434.613; 3841.136;   40.757;  159.437
434.902; 1218.107;  333.760;  439.433
435.190;  494.366;   75.761;  295.431
435.479;  273.067;  -52.245;   83.441
435.767;   97.601; -411.244; -427.561
436.056;  198.238; -340.242; -294.563
436.345;  383.885; -372.240; -223.568
436.633;  393.698;   60.750;  383.450
436.922;  241.562;  208.760;  414.432
437.210;  494.692; -194.236;    1.426
437.499; 1596.700; -583.235; -432.576
437.787; 1742.942; -339.236;  -10.574
438.075;  461.247;   56.761;  162.430
438.364;  659.625;  -44.238;  250.429
438.652;  381.658; -286.226; -138.592
438.941;  110.296;    3.770;  269.415
439.229;    3.848; -665.252; -466.545
439.517;   31.859; -160.234;  -85.577
439.806;    2.899; -501.225; -290.595
440.094;  158.592;  377.766;  650.421
440.382;  150.596; -653.233; -302.580
440.670;  185.950; -361.235; -285.576
440.959;   23.267; -347.223; -170.599
441.247;   68.107; -151.229; -109.587
441.535;   98.407; -266.235;   31.423
441.823;   28.889; -497.234; -305.578
442.111;  178.537;  173.771;  327.412
442.400;  468.292; -628.245; -335.559
442.688; 1221.342; -111.234; -620.579
442.976;  832.832; -786.213; -450.617
443.264;   91.306; -324.224; -364.597
443.552;   78.034; -258.226;   51.408
443.840;  155.631;  602.765;  876.423
444.128;   94.645;  265.767;  269.420
444.416;   -2.711; -694.228; -312.588
444.704;   27.722; -465.219;  -92.605
444.992;   70.762;   -0.226;  240.407
445.280;   43.846; -517.230;  -94.585
445.568;   29.711; -694.212; -396.618
445.856;  290.881; -174.221;  357.398
446.143;  658.393;  -54.220;   -7.604
446.431;  547.968;  -25.228;  625.411
446.719;  233.892;  489.783;  675.391
447.007;  173.365;  481.769;  705.416
447.295;  171.339;  597.777;  871.402
447.583;   95.455; -464.229;  -34.587
447.870;  140.728; -434.221; -202.601
448.158;  385.645; -104.230;  129.415
448.446;  277.969; -800.219; -338.604
448.733;  153.457;   13.776;  269.403
449.021;  234.310;   60.788;  341.382
449.309;  162.601; -296.210;  208.379
449.596;  218.988;  128.783;   59.392
449.884;  137.221; -571.222; -325.600
450.172;  161.224; -756.227; -406.590
450.459;  451.290;  645.786;  780.387
450.747; 2550.987; -411.218; -147.608
451.034; 8280.244;  493.772;  889.411
451.322; 6726.093; -413.214; -170.614
451.609;  551.809;  292.777;  508.403
451.897;  632.866; -550.203; -183.634
452.184; 1928.364; -622.223; -400.598
452.472; 1766.598;   97.792;  269.375
452.759;  352.370;  512.781;  864.395
453.047;  108.583; -407.212; -125.617
453.334;   60.003; -732.219; -216.606
453.621;   65.520; -438.214; -161.615
453.909;  124.082;   13.796;  384.368
454.196;  103.754; -299.199; -123.641
454.483;  218.154;  317.798;  540.364
454.771;  142.176; -215.208;  196.374
455.058;   36.779; -316.207;  102.374
455.345;  112.636;   71.807;  344.347
455.632;   83.733; -128.207;  235.373
455.919;   55.927;  -82.196;  182.354
456.207;  -49.291; -774.198; -450.642
456.494;  -15.359; -475.200;  -66.639
456.781;    7.699; -399.202; -198.635
457.068;   61.339; -253.206;  -29.628
457.355;  -10.485; -698.206; -401.629
457.642;    8.421; -552.205; -290.630
457.929;   -4.724; -778.194; -417.651
458.216;   60.058; -575.212; -354.617
458.503;  248.806; -173.193;  -19.652
458.790;  248.199; -864.208; -630.625
459.077;  280.929;  -77.202;  110.364
459.364;  819.394; -350.195; -210.649
459.651; 1775.537;  -46.206;  220.372
459.938;  820.639; -864.209; -665.623
460.225;  124.408;  132.799;  276.363
460.512;  -48.776; -836.197; -688.645
460.799;  100.660;  -32.218;  320.392
461.086;   68.046; -370.200; -251.640
461.372;   35.559; -509.198; -279.642
461.659;   96.503; -165.196;  108.354
461.946;   64.605; -445.193;  -54.651
462.233;  226.869;  842.800;  888.361
462.519;  357.565; -814.201; -464.639
462.806; 1050.100; -768.197; -497.645
463.093;  918.551; -445.191;  -66.656
463.380;  -22.656; -920.186; -824.664
463.666;   44.552; -259.197;  -18.646
463.953;  104.814; -406.195; -243.648
464.239;  194.014; -173.195;  -77.648
464.526;  373.425;  413.806;  743.350
464.813;  318.463; -565.190; -304.658
465.099;  336.981;  606.807;  607.348
465.386;  319.885;  903.807;  921.348
465.672;    9.350; -694.197; -522.645
465.959;    5.881; -598.188; -520.662
466.245;    4.860; -468.193; -359.652
466.532;   76.812; -109.195;   63.352
466.818;   57.793; -357.186; -216.664
467.104;    2.610; -488.182; -415.672
467.391;  -17.510; -628.189; -459.658
467.677;   23.772; -289.186;    9.335
467.964;   -3.078; -682.189; -471.660
468.250;   57.975; -331.186; -160.665
468.536;   55.141;   90.811;  180.341
468.822;  -28.663; -821.184; -574.668
469.109;  127.193;  351.827;  471.311
469.395;  179.870;  729.808;  787.346
469.681;  187.519;   46.811;  156.341
469.967; 1316.349; -699.188; -382.660
470.254; 2883.082; -494.188; -306.662
470.540; 1792.027; -601.196; -476.646
470.826;  267.946; -488.181; -397.675
471.112;  312.841;  288.816;  113.331
471.398;   77.670; -253.183;  -58.670
471.684;   37.050; -626.177; -447.680
471.970;   -1.400; -918.180; -981.675
472.256;   21.969; -521.192; -441.654
472.542;    7.404; -499.171; -434.691
472.828;    7.905; -743.182; -607.672
473.114;   32.824; -380.166; -283.700
473.400;   16.767; -504.175; -293.684
473.686;   25.055; -452.166; -400.701
473.972;   38.307; -230.174; -131.687
474.258;  -33.807; -925.173; -843.689
474.544;  196.292; -183.178;   -2.679
474.830;  322.944;  -65.175;   45.316
475.116;  534.465; -123.190; -196.658
475.401;  709.202; -558.180; -467.676
475.687;  205.726; -725.180; -718.676
475.973;   10.614; -673.181; -770.673
476.259;  227.971;  736.825;  764.315
476.544;  367.108; -539.176; -437.682
476.830;  901.275; -398.172; -322.690
477.116;  779.557; -430.177; -336.682
477.401;  129.652;  346.820;  358.324
477.687;  -12.633; -289.175; -405.684
477.973;   38.692;   21.819;   28.326
478.258;  -13.774; -448.163; -348.706
478.544;   57.905;   21.815;   61.334
478.829;  -54.165; -818.171; -738.692
479.115;  -53.976; -749.172; -651.690
479.401;   -9.323; -444.174; -449.686
479.686;   22.676; -253.180;  -74.676
479.972;  -26.678; -886.178; -776.680
480.257;   20.900; -258.166;  -65.700
480.542;   -4.161; -614.170; -469.693
480.828;  223.015; 1288.824; 1392.317
481.113;  -31.112; -464.176; -426.683
481.399;   -8.074; -236.161; -202.711
481.684;  -64.600; -620.166; -462.700
481.969;   11.189; -158.159;  -73.713
482.255;   -8.475; -439.169; -285.695
482.540;   -2.828; -569.178; -441.680
482.825;   -1.462; -395.187; -404.663
483.110;   93.903;  -85.169; -105.696
483.396;  212.712; -840.157; -652.718
483.681;  505.907;  543.826;  730.313
483.966;  171.708; -696.160; -700.712
484.251;   -3.094; -404.174; -310.687
484.536;  -12.189; -356.165; -378.703
484.822;   11.259; -205.173; -218.687
485.107;  -31.299; -599.152; -502.726
485.392;  122.141;  662.836;  541.296
485.677;   92.238;  354.832;  163.302
485.962;   97.459;  160.843;  270.283
486.247;   81.809;  -14.162;   -8.707
486.532;   43.551; -178.166; -325.701
486.817;  144.995;  381.839;  431.291
487.102;  120.933; -453.154; -514.722
487.387;  708.289; -637.156; -652.718
487.672; 1297.222; -154.164;  -38.705
487.957;  778.627; -394.160; -286.711
488.241;  215.643; -290.150; -314.729
488.526;  791.027; -280.152; -148.726
488.811; 1304.274; -881.177; -818.680
489.096;  950.236; -666.154; -702.723
489.381;  522.848;    3.847;  162.275
489.666;  432.025; -428.161; -510.710
489.950;  175.214;  558.846;  627.277
490.235;  -26.012; -480.151; -458.728
490.520;  -38.951; -756.161; -723.710
490.804;  -52.009; -827.156; -736.719
491.089;   -2.166; -469.149; -299.732
491.374;   22.895; -132.164;  -75.704
491.658;   -5.354; -817.147; -717.735
491.943;  152.482; -657.152; -609.727
492.227;  247.954; -178.155;  -38.721
492.512;   50.459; -294.157; -341.717
492.797;  -48.047; -713.149; -716.731
493.081;  -49.826; -588.147; -598.735
493.366;  -38.349; -751.161; -635.711
493.650;  192.103;  831.859;  917.254
493.935;   37.370; -648.147; -447.734
494.219;  -53.460; -778.142; -687.743
494.503;  -37.402; -585.150; -487.730
494.788;   46.850;   46.842;   74.285
495.072;   91.044;  184.850;  434.271
495.356;  167.263; -463.148; -343.733
495.641;  458.206; -812.146; -736.736
495.925;  456.321; -976.156; -903.719
496.209;   41.384; -599.149; -451.732
496.494;  -51.284; -763.142; -544.744
496.778;    8.283; -364.154; -360.722
497.062;  -47.180; -819.156; -627.719
497.346;  -37.771; -869.160; -640.711
497.631;  134.366;  580.852;  560.266
497.915;   70.566;  -64.145;  175.261
498.199;   51.037; -341.157; -277.718
498.483;   26.651; -562.152; -508.725
498.767;  200.721;  301.850;  300.271
499.051;  193.506; -126.149; -100.732
499.335;   25.479; -693.149; -739.731
499.619;  -43.343; -381.129; -423.767
499.903;   13.753; -272.155;  -65.721
500.187;   13.816; -588.153; -316.724
500.471;   19.181; -796.152; -595.727
500.755;  109.375;   62.839;  -96.710
501.039;   13.703; -270.155; -357.721
501.323;   77.005;  -21.141;  264.254
501.607;   21.702; -447.163; -503.706
501.891;   -1.162; -607.156; -512.718
502.174;  -48.047; -726.144; -585.741
502.458;   73.860;   89.849;  370.273
502.742;   43.205; -180.138; -191.751
503.026;  128.670; -412.147; -254.734
503.310;  183.388; -437.159; -375.713
503.593;  118.447; -464.147; -325.735
503.877;  116.346; -232.133; -156.760
504.161;  166.068;    2.847;  -50.724
504.444;  127.027; -841.158; -710.716
504.728;  490.694; -487.164; -522.704
505.012;  761.517; -257.150;  -76.729
505.295;  571.251; -417.161; -212.711
505.579;  558.520; -256.156; -496.719
505.862;  830.738; -555.145; -333.738
506.146;  809.391; -681.159; -758.714
506.429;  418.641;  568.841;  461.286
506.713;   71.789; -732.151; -667.728
506.996;  331.033;   90.846;  295.278
507.280;  346.539; -633.165; -474.703
507.563;  251.876; -469.155; -261.721
507.847;   95.642; -423.153; -112.724
508.130;   88.151; -665.161; -456.711
508.413;  119.496; -758.167; -577.700
508.697;  242.996; -151.167;   12.300
508.980;  162.343; -422.153; -312.724
509.263;   -7.503; -466.155; -450.720
509.547;   48.617; -124.150;   82.271
509.830;   44.529; -172.160;  140.289
510.113;   76.470;  128.844;  298.281
510.396;   30.699; -530.152; -300.725
510.680;  123.539; -818.145; -812.738
510.963;  532.588;  184.846;  180.277
511.246;  456.000; -493.150; -357.730
511.529;  241.194; -482.145;  -83.739
511.812;  411.968; -250.134;   10.241
512.095;  278.661; -740.151; -396.728
512.378;   82.926; -317.147; -245.736
512.661;   31.413; -703.137; -623.753
512.944;   35.692; -750.142; -637.744
513.227;   70.660; -170.137; -171.752
513.510;   25.628; -479.144; -671.741
513.793;   29.060; -485.140; -435.747
514.076;  143.229;  -43.127;  -39.771
514.359;  115.884; -294.149; -135.732
514.642;  102.120; -442.142; -567.744
514.925;  795.758;  581.860;  561.253
515.208; 1098.739; -498.134; -443.758
515.491;  689.503; -276.133; -182.761
515.773;  407.807; -410.143; -337.742
516.056; 2249.669;  249.864;  409.246
516.339; 3051.673; -754.136; -652.755
516.622; 1899.848; -518.150; -488.730
516.904; 1106.614;  882.857;  975.257
517.187;  509.158; -730.138; -523.752
517.470;  402.663; -568.143; -510.743
517.752;  468.226; -624.136; -470.756
518.035;  354.771; -708.139; -725.749
518.318;  406.298; -799.136; -744.755
518.600; 2655.982; -300.132; -325.762
518.883; 3655.945;  310.858;   88.256
519.165; 1717.276; -585.138; -426.751
519.448;  382.756;  -61.132;  -19.762
519.730;  209.862; -573.126; -415.773
520.013;  273.699;  588.867;  664.240
520.295;  756.044;  -94.134;  -15.759
520.578; 1664.720; -335.131; -305.764
520.860; 1896.507; -254.132;   56.238
521.143; 1016.978; -763.135; -584.756
521.425;  492.025; -251.125; -279.775
521.707;  715.104; -622.127; -380.771
521.990; 1944.955; -199.127;  167.229
522.272; 2162.286; -116.140;   -4.748
522.554;  950.782; -237.143; -157.742
522.836;  345.692;  -24.134;   99.241
523.119;  218.494; -496.148; -189.734
523.401;  147.477; -448.130; -314.766
523.683;   98.338; -865.137; -693.753
523.965;  291.506;  408.862;  260.248
524.247;  292.797;   54.878;  170.220
524.529;  222.519; -451.134; -367.759
524.812;  351.729;   -3.130;  191.234
525.094;  901.756; -773.138; -631.751
525.376; 1479.559; -143.124;   78.223
525.658;  885.645; -441.136; -339.754
525.940;   42.316; -805.131; -671.764
526.222;   39.899; -188.136;  -88.755
526.504;  113.689; -190.131;   32.237
526.786;  152.747; -960.133; -647.760
527.068;  278.065; -124.123;  -67.778
527.349;   91.567; -865.137; -774.754
527.631;  136.631; -137.132;   22.238
527.913;  138.103; -664.127; -450.771
528.195;  187.543; -761.125; -639.774
528.477;  256.439;  -93.134;  -30.758
528.759;  144.579; -648.130; -522.766
529.040;   70.538; -569.123; -293.778
529.322;   58.120; -235.125;  -10.774
529.604;  129.306;  -47.130;   93.233
529.886;  119.461; -546.126; -302.773
530.167;  121.147;  232.870;  192.235
530.449;   37.450;    1.853;   63.265
530.731;   21.446; -572.122; -459.779
531.012;   79.292; -513.120; -216.784
531.294;   70.357; -118.116;  -43.792
531.575;  159.750;  290.875;  538.225
531.857;   64.009; -548.135; -266.757
532.138;  113.304; -113.141;   40.254
532.420;  143.630;  294.865;  403.244
532.701;  202.574; -722.133; -751.760
532.983;  330.702;  232.867;  182.239
533.264;  105.384; -243.126;  175.228
533.546;  -33.151; -491.136; -508.755
533.827;   44.496;  173.867;   -1.759
534.109;   28.459; -352.135;  -80.757
534.390;   79.660; -725.132; -582.762
534.671;  247.055; -270.135;  -82.756
534.953;  149.266; -751.123; -611.779
535.234;   31.317; -426.117; -255.789
535.515;  -74.899; -891.119; -735.785
535.796;  -24.926; -431.128; -193.770
536.078; -107.791;-1050.124; -904.777
536.359;   -5.483;  -22.123;    3.221
536.640;  -15.906; -480.125; -197.774
536.921;  162.236;  225.871;  143.232
537.202;  403.627;  -87.138;  -16.751
537.483;  464.844;  251.869;  377.236
537.764;  179.923;   17.870;   98.235
538.045;  -55.562; -543.134; -371.758
538.326;  -25.812; -596.129; -447.768
538.607;   26.730; -686.127; -476.771
538.888;  164.783;   98.879;    5.218
539.169;  193.727; -704.122; -535.781
539.450;  354.335;  236.871;   16.233
539.731;  232.062; -361.121; -182.783
540.012;  107.142;  199.880;  412.216
540.293;   78.078;   82.876;  158.224
540.574;    3.828; -895.113; -717.796
540.855;  438.735;  435.879;  377.218
541.136;  547.975;   47.878;  139.220
541.416;  295.204; -161.130; -220.766
541.697;  215.040; -274.131; -170.763
541.978; 1117.532; -270.135; -315.757
542.259; 1425.830; -211.127; -236.771
542.539;  661.451; -191.116; -186.790
542.820;  187.549;  461.875;  480.225
543.101;  137.566;  -52.145;  -77.738
543.381;   39.430; -638.127; -591.771
543.662;  259.452;  159.873; -254.771
543.942;  621.475; -751.127; -830.770
544.223; 1106.226;  193.878;  161.219
544.504;  720.433; -275.124; -182.777
544.784;  602.736; -592.126; -408.773
545.065; 1743.305;  104.884; -254.791
545.345; 2081.551;  227.881;   14.215
545.626; 1371.178;  -14.113; -108.796
545.906;  946.097;   77.869;   98.235
546.186;  384.691;   92.874;  -95.773
546.467;  208.086;   99.877;  -95.778
546.747;  349.426;  264.884;  327.210
547.027;  393.782;   91.876;  111.223
547.308;  365.200; -376.127; -530.770
547.588;  426.264;  299.871;  371.232
547.868;  192.648;  458.870;  588.235
548.149;  207.087;  609.885;  593.207
548.429;  153.978; -347.127; -299.771
548.709;  209.042; -645.120; -461.784
548.989;  509.036;   84.882;   88.213
549.269; 2257.855;   10.868;  139.239
549.550; 5226.890;  215.877;  117.222
549.830; 4680.921; -758.111; -556.799
550.110;  936.379; -468.110; -320.801
550.390;  883.346; -128.122;  -56.779
550.670; 1215.448; -868.114; -783.795
550.950;  860.760; -509.121; -471.782
551.230;  192.056;  549.879;  460.218
551.510;   -1.516; -381.121; -326.782
551.790;   33.162; -173.109; -127.803
552.070;  268.211;  940.877; 1181.223
552.350;  448.855; -492.119; -377.786
552.630;  637.854;   -2.121;   77.219
552.909;  397.930;  181.884;   73.209
553.189;  242.437;  -49.132;   33.237
553.469;  201.654; -703.119; -514.786
553.749;  213.756; -469.127; -357.772
554.029;  171.196;   33.883;  -24.790
554.308;  153.592; -154.115;  -37.794
554.588;   83.173; -196.128; -204.770
554.868;   73.011; -366.121;  -47.782
555.147;  169.464; -114.115;  -46.793
555.427;  627.533; -260.116; -250.792
555.707; 4215.562; -284.115; -200.793
555.986; 5116.124; -719.111; -538.800
556.266; 2658.199;   23.884;   72.210
556.546;  136.109; -888.121; -675.782
556.825;  283.496; -657.114; -556.794
557.105; 1933.921; -125.128;   17.230
557.384; 2276.279;  122.884;  187.209
557.664;  869.157; -717.116; -508.792
557.943;  122.535; -557.121; -411.782
558.222;  186.564; -345.118; -344.788
558.502;  293.540; -116.115;  -76.793
558.781;  510.961;  194.885;  499.208
559.061;  434.963; -232.118; -227.788
559.340;  319.594;  302.883;  353.211
559.619;  737.299;   93.884;  148.210
559.899; 1091.620; -239.117; -266.789
560.178;  999.915; -778.115; -593.793
560.457; 3365.397; -623.117; -562.790
560.736; 4801.551; -472.111; -482.800
561.015; 3147.194; -500.128; -502.769
561.295;  399.982;  180.893;  215.193
561.574;  343.712;  119.885;  116.207
561.853;  530.041;  274.891;  303.197
562.132;  510.592;  -45.114;  182.206
562.411;  466.704;  396.879;  553.219
562.690;  151.510; -592.115; -458.792
562.969;  143.060;  472.888;  630.203
563.248;  496.077; 2966.878; 2487.219
563.527;  295.500; -290.111; -408.800
563.806;  413.578; -650.127; -521.771
564.085;  460.073; -297.105; -206.810
564.364;  256.399; -594.117; -405.790
564.643;  536.405; -276.121; -223.781
564.922; 2052.135;  221.890;  397.198
565.201; 2079.989; -640.109; -700.803
565.479;  877.584; -297.115; -219.792
565.758;  366.871; -810.128; -712.770
566.037;  511.115; -155.109; -100.803
566.316;  246.129; -286.116;  -28.791
566.595;   49.862;  -17.115;  -12.793
566.873;   97.152; -166.111;  -79.801
567.152;  -52.216; -490.113; -590.797
567.431;    2.125; -113.116;    6.210
567.709;    4.982; -344.107; -212.807
567.988;  278.921; -810.114; -769.794
568.266;  542.887; -160.115;  -68.793
568.545;  405.271; -644.100; -514.819
568.824;  632.633;  160.885;  356.208
569.102;  614.495; -351.114; -235.794
569.381;  235.432; -492.116; -407.792
569.659;  -47.094; -553.113; -553.796
569.938;   35.500; -743.122; -465.780
570.216;  116.743; -225.109; -225.804
570.494;  -28.726; -632.114; -572.795
570.773;   29.059;  202.879;  114.218
571.051;   27.889; -373.123; -357.778
571.330;   50.178; -221.113; -174.796
571.608;   52.689; -181.098; -173.823
571.886;  -66.631; -671.111; -581.799
572.164;  -61.814; -739.121; -621.782
572.443;  -30.123; -562.105; -512.811
572.721;  -33.778; -399.117; -289.790
572.999;  -29.734; -280.117; -168.788
573.277;   96.820;  379.894;  620.191
573.555;  306.597;   94.894;   37.190
573.834; 1483.690;  -86.117; -114.788
574.112; 1697.060;  880.893;  811.193
574.390;  507.501; -143.111;  -96.801
574.668;   13.586;  -91.112;  -61.797
574.946;   -5.628; -165.106; -187.810
575.224;    9.189;   71.891;  -16.803
575.502;  -21.298; -200.116; -204.791
575.780;  -89.288; -767.112; -829.798
576.058;  160.225; 1589.889; 1004.200
576.336;  -16.419; -210.110; -129.801
576.614;  -62.988; -511.112; -340.798
576.891;   49.691; -711.115; -823.794
577.169;  534.901; -158.108; -285.805
577.447;  638.859;  169.893;  202.193
577.725;  274.466;  629.888;  854.201
578.003;    3.489;  -71.112; -371.798
578.280;   98.836; -208.104; -242.812
578.558;   70.840; -450.115; -422.793
578.836;  131.574; -210.114; -145.795
579.114;   43.510; -630.112; -670.797
579.391;   64.942;   -6.117;  -18.789
579.669; -100.083; -595.114; -704.794
579.947;  172.956; -326.107; -127.806
580.224;  361.506; -692.107; -524.806
580.502;  342.035;  127.893;   76.193
580.779;   18.073;  -42.117;   75.210
581.057;  -74.282; -584.109; -470.804
581.334;  -95.974; -726.102; -695.815
581.612;   30.148;   54.895;  511.190
581.889;  -30.935;  -83.101; -129.818
582.167;  -35.346; -298.099; -190.821
582.444; -101.616; -845.102; -814.817
582.721;  108.185;  657.899;  715.183
582.999;   38.327; -326.100; -167.821
583.276;  566.393; -812.123; -713.779
583.553;  793.354; -364.102; -294.816
583.831;  261.707; -607.104; -631.812
584.108;   51.024;  349.892;  174.195
584.385;    6.175; -122.102;  -98.815
584.662;  -65.722; -651.111; -828.801
584.940;   30.102;  204.889;  204.199
585.217;  -12.795;  -73.113; -303.796
585.494;   29.136;   71.890;  118.198
585.771;  208.344; -250.109; -354.804
586.048;  532.680; -196.113;  -76.796
586.325;  346.005; -721.110; -773.801
586.602;   89.561;  230.896;  213.188
586.879;  -12.477; -499.100; -580.820
587.156;   44.924; -156.105; -331.810
587.433;  -29.593; -701.102; -667.817
587.710;   61.413;  152.888;  234.202
587.987;  309.504; -264.105; -236.811
588.264;  830.739;  315.888;  387.202
588.541; 1396.089;  -61.104;   26.187
588.818; 2852.846;   72.892;  171.196
589.095; 2441.209; -163.104; -174.812
589.371;  388.367; -459.109; -414.804
589.648;   25.435; -581.107; -437.807
589.925;   20.500; -517.114; -621.795
590.202;   23.862; -741.112; -607.798
590.478;   97.831; -166.105;  -73.811
590.755;  276.727; -241.108; -132.806
591.032; 2645.407; -741.110; -699.802
591.308; 3722.606; -732.094; -790.831
591.585; 1908.857; -573.110; -560.802
591.862;  163.934;-1056.102; -950.817
592.138;   56.100; -475.108; -474.805
592.415;  150.512; -486.104; -495.813
592.691; 1506.135;  460.896;  518.188
592.968; 1977.116; -208.098; -123.824
593.244;  959.875; -695.116; -595.790
593.521;   78.984; -105.102;  -42.817
593.797;  -16.853; -810.122; -720.780
594.074;  342.079; -611.096; -588.826
594.350;  683.216;  828.905;  729.172
594.626;  331.078; -303.111; -283.801
594.903;  120.959; -643.101; -645.817
595.179;  192.541;  243.896;  418.187
595.455;   10.111; -136.107; -150.807
595.731;    2.917;  -19.103;  -38.814
596.008;  -30.028; -464.111; -434.800
596.284;   38.850; -187.100; -242.820
596.560;   62.537; -501.093; -493.833
596.836;  195.401; -173.105;  -70.810
597.112;  391.700; -582.108; -437.805
597.388;  294.377;  -49.097;  -48.826
597.665;  118.433;  437.887;  530.203
597.941;  -73.933; -572.089; -658.839
598.217;   14.185; -323.110; -293.802
598.493;  267.295;   61.891; -204.804
598.769;  552.719; -175.100;  -50.819
599.045;  330.578; -490.108; -562.806
599.321;   52.924; -193.100; -261.820
599.597;  160.270; -355.109; -476.804
599.872;  502.864;  409.896;  429.187
600.148;  390.029;  -61.097; -172.826
600.424;  304.558;   91.893;  202.193
600.700;  244.636; -170.107; -280.807
600.976;  130.448; -442.097; -464.825
601.252;  259.241; -226.109; -272.803
601.527;  236.665; -833.104; -840.813
601.803;  161.157; -453.105; -404.812
602.079;  192.994; -124.100; -118.819
602.354;  610.722; -620.092; -531.835
602.630;  899.905; -140.113; -482.796
602.906; 2459.740; -910.101; -863.818
603.181; 7198.805; -627.119; -534.786
603.457; 6127.076;   98.903; -278.826
603.733;  885.013; -605.120; -626.783
604.008;  998.423; -245.106; -164.810
604.284; 3270.961; -636.101; -580.817
604.559; 2841.541;   -3.112;  -42.799
604.835;  493.751; -163.105; -225.810
605.110;  447.555; -732.099; -892.821
605.385;  731.815;  224.907;  267.167
605.661;  682.043; -625.095; -729.829
605.936; 1257.879; -664.108; -737.806
606.211; 1060.574;  -17.103; -170.815
606.487;  213.294; -329.114; -376.794
606.762;   23.155; -791.119; -745.786
607.037;  -18.824; -501.105; -433.810
607.313;  -40.638; -589.096; -574.828
607.588;   -8.353; -375.106; -137.810
607.863;   36.139;  -28.101; -143.818
608.138;  169.684;  513.890;  516.198
608.413;   55.334; -576.099; -592.822
608.688;   53.050; -203.108; -267.805
608.964;  215.366; -509.106; -218.809
609.239;  251.373; -107.105; -212.810
609.514;  251.856;  281.895;  240.188
609.789;  703.561; -187.104; -716.812
610.064;  916.310; -435.096; -609.827
610.339;  942.292; -855.109; -799.804
610.614; 1294.675; -131.100; -315.820
610.889;  700.732;  215.895;  107.188
611.163;   56.957; -407.104; -591.812
611.438;   80.220;   81.886; -167.794
611.713;    4.011; -467.101; -499.817
611.988;   64.388; -144.101; -328.818
612.263;  -24.749; -771.102; -717.815
612.538;  217.955;  385.887;  251.204
612.812;  205.401; -832.100; -911.820
613.087;  149.939; -358.098; -338.823
613.362;  -46.289; -497.107; -557.807
613.637;   38.345;  261.897;  138.186
613.911;  -17.027; -256.092; -345.835
614.186;  118.834; -249.107; -292.807
614.460;  740.219; -842.081; -758.854
614.735;  841.041;  -55.087;  -17.843
615.010;  173.381;   43.912;  -82.841
615.284;  252.674;  360.892;  246.195
615.559;  405.222; -792.092; -955.835
615.833;  300.382;  -76.099;  -87.822
616.108;   19.709; -225.090; -390.837
616.382;  132.593;  274.913;  402.156
616.656;  173.234; -241.090; -232.837
616.931;  539.507; -785.099; -700.822
617.205; 1148.715; -973.104; -979.813
617.480; 1023.048;  -91.125;    6.225
617.754;  175.745; -396.125; -128.774
618.028;   13.390; -369.129; -382.768
618.302;   70.873;   73.892;  -25.805
618.577;  -43.278; -371.103; -518.815
618.851;  -68.462; -399.109; -600.803
619.125;  -51.606; -335.134; -378.759
619.399;  -49.310; -244.104; -374.813
619.673;  -52.017; -330.115; -515.792
619.947;  -52.127; -333.114; -448.795
620.222;  -15.971; -198.110; -204.801
620.496;  -10.490;  -47.121;  -96.782
620.770;   15.377; -187.122;  -93.781
621.044;  204.699;  323.895;  346.190
621.318;  787.113; -653.120; -614.783
621.592;  707.611; -430.121; -409.783
621.866;  401.392; -476.112; -572.799
622.140;   18.952; -207.116; -356.791
622.413;   49.072;  138.889;  112.200
622.687;  -43.264; -746.101; -492.817
622.961;    8.048; -130.108; -143.805
623.235;  -53.652; -633.111; -661.800
623.509;  -91.069; -816.105; -848.811
623.783;    8.282;  -12.107;   48.193
624.056;  -31.036; -254.120; -280.783
624.330;   33.636;   63.888;   -3.797
624.604;   60.124; -271.116; -355.790
624.877;   86.608;  180.890;   26.198
625.151;   60.968; -249.114; -238.794
625.425;  -49.533; -150.103; -283.814
625.698;  -63.976; -367.119; -374.785
625.972;  -90.014; -799.110; -765.802
626.245;   70.901;  685.884;  484.210
626.519;  -63.431; -426.120; -340.784
626.792;  -35.639; -192.107; -380.807
627.066;  -78.205; -485.122; -662.779
627.339;  -98.544; -736.110; -663.802
627.613;   38.817;  351.880;  148.216
627.886;   63.312;  187.891; -612.803
628.160;  -21.212;  312.880; -161.783
628.433;  -84.800; -695.125; -703.775
628.706;  -86.906; -517.120; -615.784
628.979;   10.557;  296.876;  117.223
629.253;  -79.021; -785.119; -833.786
629.526;  408.734; -334.126; -253.772
629.799;  365.939; -641.123; -479.778
630.072;  182.741; -497.128; -516.769
630.346;  -55.349;-1115.116;-1080.790
630.619;  479.912; -467.107; -545.808
630.892;  689.173;  709.889;  593.200
631.165;  338.865;  790.896;  679.187
631.438;  -74.161;-1092.112;-1055.798
631.711;   56.393;  453.877;  257.221
631.984;  -48.204; -523.117; -624.789
632.257;  -71.158; -636.117; -681.789
632.530;  -55.801; -412.119; -433.785
632.803;   20.716; -109.115;    7.207
633.076;  -68.989; -360.123; -422.777
633.349;    7.845;  173.872;  121.231
633.622;  -51.427; -187.119; -240.785
633.895; -126.486; -903.120; -823.783
634.167;  -65.838; -496.126; -525.773
634.440;  -14.818;  -19.116; -137.792
634.713;  -23.922;  -22.119; -120.786
634.986;   66.885;  593.871;  453.233
635.258;  -71.236; -507.115; -597.793
635.531;   90.938;  742.882; -343.788
635.804;  -44.606; -303.117; -318.789
636.077;  -95.397; -830.116; -852.791
636.349;   11.162; -586.115; -474.793
636.622;  380.884; 1695.874; 1392.228
636.894;  269.769; -474.120; -909.784
637.167;  175.653; -836.127; -789.771
637.439;   35.649; -278.128; -213.770
637.712;  -48.465; -312.126; -293.772
637.984;  -85.821; -635.116; -707.791
638.257;  391.286;  515.877;  488.222
638.529;  605.226; -881.125; -924.776
638.802;  252.641; -508.128; -449.769
639.074; -110.849; -927.122; -952.781
639.346; -120.889; -942.135; -930.757
639.619;  -12.006;  -79.142; -319.744
639.891;   -1.330;  -83.122; -168.779
640.163;  -75.978; -689.122; -756.780
640.435;   26.723;  273.878;  103.220
640.708;   -3.075;  -72.122; -132.780
640.980;  -25.048; -366.122; -362.781
641.252;  194.104;  -25.121;  -71.781
641.524; 1825.006;  580.879;  573.219
641.796; 1912.333;-1094.121; -907.782
642.068;  319.960; -191.121; -300.782
642.340;  -54.713; -486.121; -566.783
642.613;   34.088;  294.880;  323.217
642.885;  -93.710; -787.120; -878.783
643.157;  -39.083; -810.120; -658.784
643.428;   42.869;  170.880;  218.216
643.700;  -67.254; -498.120; -425.784
643.972;  -30.577;  -16.119; -133.785
644.244;  -95.475; -474.119; -559.785
644.516;  -61.523; -250.119; -114.786
644.788;   50.903;  662.881;  548.214
645.060;  -17.245;  -12.119; -124.786
645.332;  -94.943; -525.118; -535.787
645.603;   30.284;  479.882;  342.213
645.875;  -74.039; -334.118; -369.787
646.147;  162.913; 1487.882; 1242.212
646.418;  -50.010; -931.117; -918.788
646.690;  155.867; -714.117; -715.789
646.962;   32.668; -413.117; -451.789
647.233;   -7.905;   15.883;   11.211
647.505; -101.128; -595.117; -475.790
647.776;   15.449;  328.884;  229.210
648.048;   -3.799; -248.116; -418.790
648.320;  -70.947; -752.116; -679.791
648.591; -151.695;-1055.116; -958.791
648.862;  -96.243; -505.116; -577.792
649.134;    5.683;  115.885;  198.208
649.405;  -43.240; -661.115; -618.792
649.677;  -52.638; -475.115; -598.793
649.948;  -15.261; -181.115; -296.793
650.219;  -11.534;  -37.115; -147.793
650.491;  -90.832; -431.114; -520.794
650.762; -125.255; -705.114; -731.794
651.033;  -77.478; -437.114; -424.795
651.304; -100.602; -743.114; -728.795
651.576;  -62.275; -680.114; -645.795
651.847;  -46.373; -250.113; -140.796
652.118;  -29.846;  -32.113; -189.796
652.389; -101.969; -639.113; -722.796
652.660;  -29.942; -147.113;  -89.797
652.931; -134.715; -897.112; -871.797
653.202;  -92.488; -382.112; -541.798
653.473;  -74.412; -633.112; -533.798
653.744;  161.940; -595.112; -590.798
654.015;  152.592; -356.112; -303.799
654.286;  -69.106; -642.111; -663.799
654.557;  -66.404; -586.111; -521.799
654.828; -160.427;-1114.111;-1088.800
655.099;  -96.225; -404.111; -291.800
655.370; -106.973; -427.111; -543.801
655.641; -129.196; -656.110; -714.801
655.911; -112.120; -618.110; -638.801
656.182;   31.257;  437.890;  387.198
656.453;   72.484;  830.890;  746.198
656.724;  -65.839; -466.110; -426.802
656.994;  -91.312; -553.109; -568.803
657.265;  -98.860; -862.109; -873.803
657.536;  -90.933; -500.109; -377.804
657.806; -117.231; -561.109; -593.804
658.077; -136.555; -866.109; -950.804
658.347;  -98.428; -523.108; -598.805
658.618; -133.276; -646.108; -694.805
658.888;  -24.999;  -41.108;  112.195
659.159;  -73.522; -432.108; -548.806
659.429;  -22.345; -292.108; -349.806
659.700;   10.807; -435.107; -390.807
659.970;    2.859; -370.107; -359.807
660.241;    4.460; -754.107; -921.807
660.511;  539.787; -147.107; -174.808
660.781;  112.939; -793.106; -748.808
661.052;  -47.184; -222.106; -381.808
661.322;  -14.307;   21.894;   -9.809
661.592;   13.970;  257.894;  148.191
661.862;  -85.328; -369.106; -382.810
662.133; -102.676; -551.105; -502.810
662.403; -111.650; -770.105; -676.810
662.673;  -53.523; -256.105; -213.811
662.943; -101.446; -612.105; -551.811
663.213;  -11.044;  -85.105;  -81.811
663.483;  -76.917; -593.104; -568.812
663.753;  -56.015; -194.104; -152.812
664.023;  -11.213;   68.896;  -32.813
664.293;  -63.136; -319.104; -126.813
664.563; -116.660; -694.104; -648.813
664.833; -117.783; -743.103; -608.814
665.103; -127.006; -730.103; -793.814
665.373; -107.654; -766.103; -806.814
665.643;  -74.302; -863.103; -918.815
665.913;   44.450; -534.103; -714.815
666.182;  151.252; -685.102; -719.816
666.452;  281.654;  -22.102;  -89.816
666.722;   -6.320; -724.102; -784.816
666.992; -132.368; -948.102; -921.817
667.261;  -88.341; -824.102; -808.817
667.531;  178.611;  134.899;   45.183
667.801;  556.063; -440.101; -412.818
668.070;  231.865;  714.899;  697.182
668.340; -109.958; -883.101; -840.819
668.609;   87.844;  588.900;  301.181
668.879;  -91.005; -490.100; -558.819
669.149;  -72.753; -539.100; -516.820
669.418; -102.626; -698.100; -726.820
669.688;  -31.874; -482.100; -666.820
669.957;   82.653; -423.099; -546.821
670.226;  -30.920; -268.099; -331.821
670.496;  -94.618; -431.099; -635.822
670.765;  -81.966; -418.099; -501.822
671.034; -134.590; -872.099; -828.822
671.304;  -22.288;   55.902; -111.823
671.573; -146.186;-1085.098; -957.823
671.842;   90.766; -380.098; -294.823
672.112;   40.643; -692.098; -586.824
672.381;    7.520; -239.098; -214.824
672.650; -131.328;-1005.097;-1021.825
672.919; -106.401; -631.097; -507.825
673.188;  -93.850; -681.097; -878.825
673.457; -140.398;-1101.097;-1143.826
673.726;  -85.621; -579.096; -646.826
673.995;  -49.269; -533.096; -479.826
674.265;  -20.067; -263.096; -333.827
674.534;   -5.840; -183.096; -235.827
674.802;    6.237; -618.096; -703.828
675.071; 1013.489; -886.095; -801.828
675.340; 4246.290; -464.095; -339.828
675.609; 1375.317;  103.905;   82.171
675.878;   90.219; -949.095; -893.829
676.147;   36.496;  -26.095;   -8.829
676.416;   75.223; -210.094; -294.830
676.685;  786.075; 1000.906; -622.830
676.953;  111.802; -603.094; -452.831
677.222;  -25.971; -193.094; -273.831
677.491;  -36.694;  -24.094; -127.831
677.759;  -17.893;   11.907;  172.168
678.028;  -22.791; -279.093; -222.832
678.297;   -8.439;   71.907;  197.168
678.565; -145.662; -898.093; -944.833
678.834;  -54.585; -311.093; -268.833
679.102;  -71.183; -411.092; -391.834
679.371; -146.556; -898.092; -727.834
679.639; -133.529; -797.092; -786.834
679.908; -128.703; -794.092; -724.835
680.176; -155.876; -895.091; -941.835
680.445;  -69.899; -346.091; -352.835
680.713;  -29.147;  -58.091;  -23.836
680.982; -100.270; -523.091; -525.836
681.250;  -96.168; -578.091; -507.837
681.518;  -98.041; -534.090; -751.837
681.787;  -31.264; -204.090; -167.837
682.055;  -65.013; -490.090; -422.838
682.323; -149.786; -993.090; -992.838
682.591;   33.941; -216.090; -538.838
682.859;  113.668;    9.911;  -35.839
683.128;    1.545;  232.911;  497.161
683.396; -166.953;-1102.089;-1122.840
683.664;  -44.951; -241.089;   21.160
683.932;   -0.099;  144.911;  -76.840
684.200;  -71.048; -576.088; -320.841
684.468;  -25.396;  -73.088; -124.841
684.736;  -50.394; -214.088; -175.841
685.004; -116.417;-1024.088; -982.842
685.272;  -29.490; -880.088; -774.842
685.540;  -60.163; -499.087; -557.843
685.808;  -87.761; -651.087; -682.843
686.076;  -87.384; -894.087; -969.843
686.343;  -56.008; -601.087; -815.844
686.611;   41.994; -195.087; -224.844
686.879;  454.171; -530.086; -553.844
687.147; 3518.573; -483.086; -480.845
687.414;  995.275;  -12.086; -169.845
687.682;    3.002; -658.086; -757.846
687.950;  315.329;  259.915;  263.154
688.217;    6.706; -792.085; -760.846
688.485;   -3.268; -632.085; -636.847
688.753;  552.684;  -11.085; -102.847
689.020;  181.311; -820.085; -851.847
689.288; -108.887; -853.084; -787.848
689.555;  -40.385; -195.084; -148.848
689.823;  -45.683; -241.084; -345.849
690.090;  -91.806; -546.084; -651.849
690.358; -153.179; -877.084; -897.849
690.625;   21.397;  120.917;   45.150
690.892;  -86.451; -403.083; -369.850
691.160;  -20.749;   72.917;  -35.850
691.427;    5.253;  141.917;  130.149
691.694; -136.945; -855.083; -929.851
691.962; -143.068;-1177.082;-1060.852
692.229;   11.509;  127.918;   56.148
692.496;   75.736;  130.918;  -49.852
692.763;   11.662; -164.082; -201.853
693.031;  -65.136; -739.082; -716.853
693.298;  -38.259; -509.081; -368.853
693.565;  321.568; -155.081; -163.854
693.832; 1371.070;   -5.081;   -9.854
694.099;  161.972; -643.081; -642.855
694.366;  -55.301; -882.081; -896.855
694.633;  -55.749; -920.080; -633.855
694.900;  728.627; 4367.920; -114.856
695.167;  446.429; -214.080; -380.856
695.434;   95.656; -646.080; -623.856
695.701;  190.958;  121.921;  -61.857
695.968;  493.660; -365.079; -361.857
696.234;  993.662; -415.079; -646.858
696.501;10454.614; -776.079; -614.858
696.768; 5568.866; -554.079; -617.858
697.035;  332.268; -632.078; -667.859
697.302;   54.769; -448.078; -552.859
697.568;   10.596; -458.078; -497.859
697.835;  -37.002; -683.078; -624.860
698.102;  -16.500; -498.078; -407.860
698.368;   63.852;  384.923;  396.139
698.635;  -33.821;  -47.077; -424.861
698.901;  -20.519; -240.077; -348.861
699.168;   70.658; -534.077; -456.862
699.435;   89.284;  -72.077;  -13.862
699.701; -109.739; -868.076; -764.862
699.968;    0.363;  144.924; -441.863
700.234;  -89.560; -783.076; -822.863
700.500;  -65.583; -448.076; -539.864
700.767;    5.569;   -1.075;   26.136
701.033; -133.129;-1015.075; -963.864
701.299;  -71.127; -450.075; -483.865
701.566;  103.274;  950.925;  763.135
701.832;   33.251;  -31.075;  -76.865
702.098; -103.347;-1054.074;-1034.866
702.365;  -82.370;-1098.074;-1030.866
702.631;  -14.643;-1038.074;-1063.867
702.897; 1369.434; -765.074; -676.867
703.163; 2374.561;  348.926;  254.133
703.429;  182.863; -256.073; -273.868
703.695;  -36.511; -796.073; -792.868
703.961;   25.216; -214.073; -210.868
704.227;  -50.482; -630.073; -725.869
704.493;  112.870;  613.927;  510.131
704.759;  -12.503; -565.072; -540.870
705.025;   22.749; -203.072; -194.870
705.291;  -15.374; -666.072; -562.870
705.557;  188.378;  719.928;   34.129
705.823;   35.829; -742.072; -694.871
706.089;  147.456; -307.071; -326.871
706.355;  334.783; -315.071; -244.872
706.620; 5395.310; -776.071; -729.872
706.886; 8005.912; -309.071; -362.873
707.152;  778.014; -818.070; -973.873
707.418;   -6.709;-1153.070;-1186.873
707.683;    1.543; -550.070; -530.874
707.949;  -55.981; -547.070; -578.874
708.215;   -6.079; -129.070; -207.874
708.480;  -25.902; -520.069; -420.875
708.746;  102.600;   68.931;   28.125
709.011;  -70.573; -578.069; -612.876
709.277;  -76.571; -538.069; -543.876
709.542;  -46.844; -428.069; -387.876
709.808;  -10.267;  -59.068;   89.123
710.073;  -74.291; -577.068; -695.877
710.339;  -27.439; -242.068; -228.877
710.604;   57.038; -780.068; -845.878
710.869;  347.615; -277.068; -366.878
711.135;  -56.883; -715.067; -628.879
711.400;  -81.931; -507.067; -608.879
711.665;  -69.354; -404.067; -479.879
711.931;  -88.127; -661.067; -677.880
712.196; -119.426; -876.067; -954.880
712.461;  102.926; -402.066; -490.880
712.726;  144.628; -727.066; -771.881
712.991;  -90.970; -647.066; -664.881
713.256;  -56.843; -350.066; -332.882
713.521;  -55.466; -417.065; -381.882
713.787;  -63.414; -454.065; -472.882
714.052;  -27.162; -214.065; -400.883
714.317; -102.411;-1045.065; -981.883
714.581;  968.341; -374.065; -268.883
714.846; 1473.643; -822.064; -888.884
715.111;  132.695;  261.936;  257.116
715.376;  -24.253;  -86.064; -223.885
715.641;  -18.526; -365.064; -367.885
715.906;  325.926;   15.936; -551.885
716.171;  132.378;  221.937;  209.114
716.436;   39.654;  -78.063; -104.886
716.700; -114.519; -818.063; -692.886
716.965; -129.942; -794.063; -807.887
717.230;  -68.340; -339.063; -392.887
717.494;  -27.063;  -40.062; -134.888
717.759;  -93.411; -784.062; -640.888
718.024;  -14.334;  269.938;  250.112
718.288;   48.568;  685.938;  395.111
718.553; -152.830; -803.062; -977.889
718.817; -144.154; -883.061; -899.889
719.082;  -35.002; -115.061; -125.890
719.346; -136.450;-1000.061; -947.890
719.611;  -51.523; -300.061; -255.891
719.875;  -96.521; -568.060; -537.891
720.140;  -71.219; -453.060; -603.891
720.404;   32.808; -136.060; -249.892
720.668;  864.135; -475.060; -411.892
720.933;  369.261;  146.940;  137.108
721.197;  -99.112; -667.059; -600.893
721.461; -136.660; -851.059; -826.893
721.725;  -16.283;  -21.059; -250.894
721.990;  -64.106; -284.059; -204.894
722.254;  -25.029;  -26.059; -108.894
722.518;  -85.227; -286.058; -442.895
722.782;  -95.325; -743.058; -594.895
723.046;  113.676;  614.942;  570.105
723.310;   12.403;  374.942;  210.104
723.574;  -99.545; -654.058; -614.896
723.838; -109.843; -576.057; -642.897
724.102;  -54.691; -226.057; -239.897
724.366; -143.864;-1032.057; -978.897
724.630; -105.337; -749.057; -571.898
724.894;  -74.960; -722.057; -514.898
725.158;  -14.284;   38.944; -295.898
725.422;  -53.857; -394.056; -327.899
725.685;  -69.080; -441.056; -349.899
725.949;  -75.603; -566.056; -519.900
726.213;  -86.876; -732.056; -811.900
726.477;  187.076;-1020.055; -933.900
726.740;  151.478; -274.055; -104.901
727.004;  325.255; -384.055; -510.901
727.268; 3340.506; -442.055; -400.901
727.531;  974.433; -961.055; -775.902
727.795;  -35.890; -713.054; -673.902
728.059;  -61.088; -552.054; -557.903
728.322;  -83.836; -841.054; -669.903
728.586;   29.366; -692.054; -701.903
728.849;  -77.582; -695.053; -756.904
729.112; -120.880; -812.053; -912.904
729.376; -122.804; -959.053; -905.904
729.639;  -74.677; -536.053; -536.905
729.903; -116.025; -733.053; -699.905
730.166;  -51.873; -437.052; -399.906
730.429;  -59.471; -317.052; -468.906
730.693;  -74.869; -355.052; -894.906
730.956;  178.108;  810.948;  651.093
731.219;  740.985; -310.052; -103.907
731.482;  129.761;-1003.051; -894.907
731.745;  135.088; -794.051; -935.908
732.009;    7.115;  -30.051;   50.092
732.272; -102.033; -904.051; -771.909
732.535;  -58.281; -300.051; -310.909
732.798; -149.804;-1083.050;-1166.909
733.061;  -60.727; -430.050; -456.910
733.324;   -3.225;   31.950; -180.910
733.587;   51.501;  290.950;  365.090
733.850;  -74.172; -973.049;-1050.911
734.113;   29.430;   33.951;   32.089
734.376;   11.032; -328.049; -447.912
734.639;  215.659; 1188.951; 1011.088
734.901;   60.686; -180.049; -402.912
735.164;  506.538; -883.048; -837.913
735.427; 1400.140; -166.048; -355.913
735.690;  112.216; -205.048; -234.913
735.952;  -24.482; -923.048; -925.914
736.215;  -25.880;-1113.048;-1009.914
736.478;   40.547; -771.047; -774.915
736.740;  216.499;   33.953;  129.085
737.003;  645.151; -658.047; -672.915
737.266; 4354.203;  -94.047;   46.084
737.528;  477.030; -682.047; -660.916
737.791;  319.457; -316.046; -327.916
738.053;  787.408;  465.954;  649.083
738.316;10667.760; -162.046; -136.917
738.578; 8204.687; -770.046; -736.918
738.841;  468.789; -382.046; -446.918
739.103;  173.166; -875.045; -777.918
739.365;  535.943;   79.955;  -69.919
739.628;   26.320; -884.045; -805.919
739.890;  -25.503; -758.045; -710.919
740.152;  -43.702; -692.044; -754.920
740.414;   -4.825; -408.044; -359.920
740.677;  -51.723; -785.044; -634.921
740.939;  -51.296; -587.044; -487.921
741.201;  289.856; -432.044; -572.921
741.463;   43.383; -689.043; -745.922
741.725;    5.660;  -21.043; -199.922
741.987;   46.087;  220.957;  116.078
742.249;   -0.487; -751.043; -859.923
742.511;  234.140; -703.043; -794.923
742.773;   17.167; -546.042; -546.924
743.035;  125.969;  796.958;  533.076
743.297;  -51.879; -963.042;-1013.924
743.559;  767.523; -278.042; -262.925
743.821;   77.350; -735.042; -744.925
744.083;   -3.198;  -44.041; -149.925
744.345;  -98.422; -869.041; -892.926
744.607;   39.155;   75.959;  122.074
744.868;  -50.193; -490.041; -554.927
745.130; -113.916; -994.041;-1008.927
745.392;   37.136;   -1.040;  -44.927
745.653;  -13.887; -411.040; -378.928
745.915;  149.215;  896.960;  631.072
746.177;   53.892;   35.960;  -43.928
746.438;   -1.707; -428.040; -543.929
746.700;  -45.805; -947.039; -988.929
746.961;   21.397; -659.039; -740.930
747.223;  141.549; -190.039;  -74.930
747.484;  100.776; -391.039; -471.930
747.746;  135.278;  -23.038; -106.931
748.007;  133.055; -647.038; -689.931
748.269;  310.132; -468.038; -440.931
748.530;  518.458; -852.038; -638.932
748.791;  277.010; -354.038; -420.932
749.053;  446.362;  286.963;  163.067
749.314;  469.064; -236.037; -169.933
749.575;  528.766; -945.037; -905.933
749.836;  878.443; -217.037;   86.066
750.098; 2416.395;  -60.037;  -21.934
750.359;37332.722;  414.964;  555.066
750.620;10460.098; -121.036; -220.935
750.881; 1082.075; -585.036; -513.935
751.142; 1395.927; -950.036; -938.936
751.403;16602.279; -789.036; -705.936
751.664; 8169.381;-1034.035; -999.936
751.925;  532.883; -175.035; -262.937
752.186;  298.235; -298.035; -278.937
752.447;  144.812; -590.035; -445.937
752.708;   46.013; -532.035; -648.938
752.969;    4.940; -566.034; -576.938
753.230;    1.492; -777.034; -672.939
753.491;   -8.881; -650.034; -631.939
753.751;   69.571;  109.966;   19.061
754.012;   95.398;  258.967;  181.060
754.273;   67.350; -174.033;  -71.940
754.534;   16.452; -487.033; -580.940
754.794;  -75.797; -926.033; -911.941
755.055;  134.755; 1051.967;  881.059
755.316;  -36.618; -700.032; -566.942
755.576;  -29.466; -606.032; -576.942
755.837;  -31.139; -527.032; -695.942
756.097;  -46.587; -530.032; -564.943
756.358;  -67.610; -725.032; -770.943
756.618;  -43.458; -705.031; -641.943
756.879;   -1.356; -254.031; -349.944
757.139; -135.655;-1098.031;-1116.944
757.400;  -49.253; -538.031; -553.945
757.660;  -31.526; -365.031; -401.945
757.920;    9.901; -266.030; -228.945
758.181;  -21.747; -468.030; -351.946
758.441;  -85.770; -870.030; -809.946
758.701;  -18.368; -308.030; -215.946
758.961;  -27.466; -220.030; -278.947
759.222;  -48.365; -574.029; -502.947
759.482;  -81.163; -683.029; -723.948
759.742;  -85.361; -706.029; -547.948
760.002;   -2.859;  -83.029; -143.948
760.262;   12.818;   50.972;  182.051
760.522;  -49.380; -498.028; -574.949
760.782;  -56.303; -738.028; -612.949
761.042;  -35.151; -618.028; -573.950
761.302;   38.625;   55.972;  -18.950
761.562;   50.977; -164.027; -154.951
761.822;   79.729; -710.027; -551.951
762.082;  -20.419;-1104.027;-1093.951
762.342;   68.433; -328.027; -403.952
762.601;   92.460; -567.027; -506.952
762.861;  381.312; -281.026; -207.952
763.121;  421.239; -406.026; -411.953
763.381; 7283.490; -499.026; -485.953
763.640; 8874.642; -139.026; -307.954
763.900;  386.319; -242.026; -203.954
764.160;  101.096; -458.025; -491.954
764.419;   -7.952; -726.025; -782.955
764.679;  -64.825; -795.025; -726.955
764.939;  -16.223; -124.025; -210.955
765.198;  -84.646; -608.025; -563.956
765.458;  -81.620; -710.024; -612.956
765.717;  -75.643; -454.024; -590.957
765.976;  -64.841; -428.024; -411.957
766.236;  -72.914; -475.024; -610.957
766.495;   22.438;  260.977;   73.042
766.755;  -87.010;-1090.023; -987.958
767.014;   10.792; -594.023; -665.958
767.273;  -69.906; -373.023; -397.959
767.533;  -41.580; -228.023; -307.959
767.792;  -28.428; -151.022; -188.960
768.051;  -49.601; -228.022; -276.960
768.310;  -63.399; -546.022; -650.960
768.569;  -13.772; -161.022;    4.039
768.828;  -34.320; -285.022; -363.961
769.088; -125.618;-1050.021; -942.961
769.347;  -85.291; -755.021; -599.962
769.606;  -96.465; -876.021; -857.962
769.865; -114.313;-1016.021;-1033.963
770.124;    0.664; -411.021; -336.963
770.383;  -55.059; -778.020; -910.963
770.641;   -6.707; -398.020; -400.964
770.900;  -55.455; -953.020; -846.964
771.159;  -46.828; -851.020; -951.964
771.418;   -8.776; -917.020; -779.965
771.677;  137.275; -224.019; -293.965
771.936;  145.502; -794.019; -865.966
772.194; 1958.904; -465.019; -437.966
772.453;11479.931; -213.019; -391.966
772.712;  828.083;  416.982;  329.033
772.970;  113.110;   32.982;   63.033
773.229;   74.062;  -22.018;  102.033
773.488;  -80.961; -814.018; -770.968
773.746;   47.990;  296.982;  335.032
774.005;    2.492;  190.983;  -22.969
774.263;   -0.906;  243.983;  177.031
774.522;  -32.504; -422.017; -548.969
774.780;  -74.427; -484.017; -417.970
775.039;  -97.050; -551.017; -531.970
775.297;  -17.248; -135.016; -351.970
775.555; -109.221; -489.016; -612.971
775.814; -125.995; -618.016; -570.971
776.072; -120.668; -749.016; -740.971
776.330; -107.291; -630.016; -520.972
776.589; -124.039; -703.015; -721.972
776.847; -129.362; -645.015; -624.973
777.105; -170.435;-1016.015;-1032.973
777.363;  -90.508; -459.015; -454.973
777.621; -129.281; -660.015; -717.974
777.879;  -24.854;  -42.014;   32.026
778.138;  -96.003; -554.014; -717.974
778.396; -105.401; -585.014; -526.975
778.654; -167.799;-1015.014; -970.975
778.912;  -71.447; -269.014; -371.976
779.170; -128.445; -880.013; -803.976
779.427; -159.743; -922.013; -897.976
779.685; -141.266; -880.013; -832.977
779.943;  -80.214; -654.013; -593.977
780.201; -165.388; -964.012; -883.978
780.459; -111.736; -651.012; -610.978
780.717;  -83.834; -440.012; -390.978
780.974; -109.407; -449.012; -490.979
781.232;  -64.730; -358.012; -338.979
781.490;  -86.553; -551.011; -472.979
781.747; -105.601; -555.011; -476.980
782.005;    6.926;  462.989;  254.020
782.263; -159.123; -542.011;-1004.981
782.520;  -93.746; -326.011; -501.981
782.778; -164.019;-1013.010;-1051.981
783.035; -178.667; -962.010; -938.982
783.293;  -62.390; -248.010; -206.982
783.550;  -66.963; -134.010; -198.982
783.808; -122.961; -764.010; -776.983
784.065; -152.959; -745.009; -874.983
784.322;  -56.408;   25.991;  -86.984
784.580; -150.531; -915.009; -771.984
784.837;  -96.054; -392.009; -466.984
785.094; -125.227; -783.009; -762.985
785.352;  -72.725; -304.008; -404.985
785.609; -110.048; -934.008; -839.985
785.866;  -80.796; -345.008; -401.986
786.123;  -76.144; -639.008; -583.986
786.380; -100.968; -665.008; -604.987
786.637;  -60.691; -225.007; -380.987
786.895;  -13.739; -456.007; -543.987
787.152;  -48.737; -135.007; -267.988
787.409;  -50.285; -123.007; -225.988
787.666;  -87.008; -299.006; -378.988
787.923; -112.156; -616.006; -695.989
788.179;  -92.304; -551.006; -584.989
788.436; -108.478; -585.006; -585.990
788.693;  -32.751;  -92.006;  -87.990
788.950;  122.126; -125.005; -112.990
789.207;  256.903; -381.005; -372.991
789.464;  -62.220; -161.005; -301.991
789.720;  -23.868;  150.995;  110.009
789.977; -176.766;-1003.005; -671.992
790.234;  -38.464;   44.996;  -66.992
790.490; -171.613; -884.004;-1031.993
790.747;  -29.311;  -85.004;   22.007
791.004;  -18.259; -426.004; -348.993
791.260;  -69.782; -430.004; -560.994
791.517; -111.480; -843.003; -788.994
791.773;  -59.853; -379.003; -342.994
792.030; -104.626; -596.003; -660.995
792.286; -100.124; -686.003; -636.995
792.543;  -17.198;  -74.002; -159.995
792.799;  -60.196; -584.002; -382.996
793.055; -163.394;-1179.002;-1210.996
793.312; -106.342; -827.002; -816.997
793.568;  -70.015; -746.002; -599.997
793.824;    9.362; -226.001; -284.997
794.081;    9.739; -447.001; -508.998
794.337;   55.991; -664.001; -561.998
794.593; 1206.342; -319.001; -271.999
794.849; 6954.919; -746.001; -772.999
795.105;  375.846; -270.000; -261.999
795.361;   17.798; -490.000; -457.000
795.617;  -67.050; -875.000; -945.000
795.873;  -46.950; -360.000; -407.000
796.129;  -38.825; -368.000; -306.000
796.385;  -19.700; -124.000; -156.000
796.641;   54.125;  412.000;  550.000
796.897;  -91.625; -666.000; -635.000
797.153;   54.350;  453.000;  357.000
797.409;  -88.100; -785.000; -868.000
797.665;  -69.175; -625.000; -732.000
797.921;  -97.600; -775.000; -762.000
798.176;  -64.575; -744.000; -747.000
798.432;  -42.825; -824.000; -596.000
798.688;  -67.500;-1174.000;-1078.000
798.943;   76.600; -165.000; -147.000
799.199;    1.850;-1005.000; -959.000
799.455;  228.600;  369.000;  316.000
799.710;  130.400; -813.000; -380.000
799.966;  301.300; -162.000; -160.000
800.221;  465.250; -638.000; -721.000
800.477; 9967.875; -743.000; -710.000
800.732;10281.175; -773.000; -800.000
800.988;  652.050;  205.000;  -19.000
801.243; 1577.650; -454.000; -344.000
801.498; 7860.800; -814.000; -739.000
801.754;  487.100; -289.000; -163.000
802.009;   89.050; -257.000; -335.000
802.264;  -44.450; -967.000;-1033.000
802.520;   18.150;  222.000;   -3.000
802.775;  -57.025; -524.000; -359.000
803.030;   36.175;  395.000;  356.000
803.285; -104.175; -840.000; -903.000
803.540;  -65.600; -686.000; -699.000
803.795;  -49.550; -648.000; -583.000
804.051;  -42.800; -279.000; -346.000
804.306;   19.275;  168.000;  128.000
804.561;  156.775;  451.000;  362.000
804.816;  118.200;  714.000;  861.000
805.071;   12.250; -185.000; -280.000
805.325;  225.975; -257.000; -427.000
805.580;  -94.850; -841.000; -877.000
805.835;  -27.275; -204.000; -297.000
806.090;  -86.225; -760.000; -676.000
806.345;  -12.600; -344.000; -264.000
806.600;  -31.750; -549.000; -632.000
806.854;  -36.650; -408.000; -538.000
807.109;   -9.025; -493.000; -577.000
807.364;    7.175; -407.000; -328.000
807.618;   -1.750; -415.000; -381.000
807.873;   44.675; -470.000; -494.000
808.128;  104.900; -257.000; -518.000
808.382;  131.900; -224.000; -332.000
808.637;   85.225; -440.000; -511.000
808.891;  191.000; -257.000; -180.000
809.146;  116.975; -902.000; -794.000
809.400;  267.500; -848.000; -923.000
809.654;  339.825; -779.000; -551.000
809.909;  515.200; -841.000; -927.000
810.163; 6277.075; -813.000; -651.000
810.418;18835.975; -940.000; -861.000
810.672; 1189.375; -685.000; -690.000
810.926;  753.725; -993.000; -973.000
811.180; 1380.450; -439.000; -372.000
811.434;31037.700;  240.000;  135.000
811.689;14732.550; -231.000; -365.000
811.943;  718.875; -936.000; -953.000
812.197;  344.575; -893.000; -671.000
812.451;  141.350; -379.000; -514.000
812.705;  -19.475; -809.000; -619.000
812.959;    0.200; -263.000; -388.000
813.213;    3.600; -283.000; -209.000
813.467;   67.525;  470.000;  253.000
813.721; -104.375; -764.000; -792.000
813.975; -109.275; -826.000; -877.000
814.229;   37.000;  430.000;  353.000
814.482;  -71.025; -517.000; -566.000
814.736; -124.925; -766.000; -744.000
814.990; -131.750; -779.000; -872.000
815.244;  -48.575; -228.000; -285.000
815.497;  -96.000; -636.000; -601.000
815.751;  -26.875; -141.000;   82.000
816.005;  -86.575; -470.000; -586.000
816.258;  -64.875; -510.000; -363.000
816.512; -105.225; -693.000; -610.000
816.766;  -11.825;  121.000;  157.000
817.019;    8.500;  148.000;  149.000
817.273; -110.425;-1000.000; -802.000
817.526;  -43.800; -206.000; -173.000
817.779;  -42.775;-1049.000; -960.000
818.033;  -72.875; -693.000; -807.000
818.286; -120.200; -725.000; -792.000
818.540;  -93.650; -403.000; -403.000
818.793;  -80.550; -402.000; -489.000
819.046;  -96.275; -582.000; -520.000
819.299;  -48.475; -157.000; -166.000
819.553; -126.450; -552.000; -592.000
819.806; -167.775;-1016.000; -838.000
820.059;  -72.325; -334.000; -354.000
820.312;   17.450;  152.000;  185.000
820.565;  -27.375;  110.000;  -27.000
820.818;  -45.350;  -59.000; -173.000
821.071; -155.700;-1041.000; -957.000
821.324; -106.075; -536.000; -540.000
821.577; -110.225; -457.000; -483.000
821.830;  -64.325; -270.000; -172.000
822.083; -134.575; -733.000; -288.000
822.336;  -71.750; -261.000; -167.000
822.589; -136.000; -805.000; -688.000
822.842; -145.100; -875.000; -770.000
823.094; -167.150;-1076.000;-1114.000
823.347; -141.075; -925.000; -729.000
823.600;   18.125;  402.000;  187.000
823.853;  -63.650; -311.000; -267.000
824.105;  -76.800; -331.000; -575.000
824.358; -115.375; -617.000; -716.000
824.611;   14.150;  234.000;   40.000
824.863;  -54.575; -612.000; -591.000
825.116;   47.975;  -33.000;   27.000
825.368;   78.500; -366.000; -372.000
825.621;  169.625; -186.000; -240.000
825.873;   89.900; -704.000; -737.000
826.126;  535.875; -669.000; -641.000
826.378;11597.875; -389.000; -505.000
826.630; 3443.775; -890.000; -898.000
826.883;   69.700; -754.000; -693.000
827.135;   37.450; -279.000; -270.000
827.387; -112.125; -893.000; -839.000
827.639;  -32.275;  -86.000;   32.000
827.892; -123.425; -742.000; -582.000
828.144; -144.400; -848.000; -804.000
828.396;  -30.125;  104.000;  -80.000
828.648; -105.275; -440.000; -333.000
828.900; -144.175; -702.000; -795.000
829.152; -123.300; -684.000; -683.000
829.404;  -77.100; -215.000; -267.000
829.656;  -23.750;  321.000;  214.000
829.908;  -21.000;  393.000;  229.000
830.160; -168.725;-1064.000;-1047.000
830.412; -107.325; -481.000; -430.000
830.664; -128.075; -557.000; -665.000
830.916;  -87.150; -268.000; -206.000
831.167; -177.825;-1073.000; -951.000
831.419; -125.475; -623.000; -566.000
831.671; -147.650; -764.000; -809.000
831.923;  -90.500; -311.000; -447.000
832.174;  -83.850; -273.000; -331.000
832.426; -105.725; -493.000; -582.000
832.678; -198.650;-1043.000;-1091.000
832.929; -163.150; -947.000; -935.000
833.181;  -61.250; -575.000; -677.000
833.432;  -51.425;  -59.000; -186.000
833.684;  -31.300;  112.000;  -27.000
833.935; -130.050; -610.000; -566.000
834.187; -129.175; -829.000; -823.000
834.438;  -50.325;  -58.000;  -25.000
834.689;  -68.400; -255.000; -123.000
834.941;  -77.525; -343.000; -244.000
835.192;  -92.800; -590.000; -533.000
835.443; -105.350; -419.000; -506.000
835.695;  -33.950;  138.000;  -16.000
835.946;  -89.825; -608.000; -378.000
836.197; -133.650; -599.000; -622.000
836.448;  -91.875; -528.000; -395.000
836.699;  -56.225; -253.000; -341.000
836.950;  -24.900;   72.000;    7.000
837.201; -151.025;-1003.000; -987.000
837.452;  -48.225; -356.000; -170.000
837.703; -101.450; -791.000; -737.000
837.954;  -31.025; -205.000; -365.000
838.205;  -80.525;-1029.000;-1008.000
838.456;  175.500; -196.000; -282.000
838.707;   14.550; -423.000; -519.000
838.958;   14.325; -634.000; -647.000
839.209;  304.425;   18.000;   40.000
839.460;  124.100; -439.000; -201.000
839.710;  183.775; -135.000; -297.000
839.961;  427.875;  730.000;  612.000
840.212;  346.975; -382.000; -497.000
840.462; 1086.100; -328.000; -277.000
840.713;17496.100; -571.000; -536.000
840.964; 8386.850;  -62.000; -143.000
841.214;  546.900; -384.000; -624.000
841.465;  605.075; -214.000; -141.000
841.715;  544.625; -417.000; -380.000
841.966;  693.825; -746.000; -685.000
842.216; 8465.375; -330.000; -431.000
842.466;37696.650; -169.000; -313.000
842.717; 2503.125; -964.000; -952.000
842.967;  338.550; -635.000; -641.000
843.217;  310.875;   20.000;   28.000
843.468;   69.700; -104.000; -132.000
843.718;  -36.125; -718.000; -726.000
843.968;  -88.800; -837.000; -765.000
844.218;    7.550; -315.000; -262.000
844.469;  -35.700; -577.000; -561.000
844.719; -112.800; -537.000; -682.000
844.969;  -92.700; -550.000; -580.000
845.219; -142.375; -814.000; -862.000
845.469;  -84.950; -392.000; -342.000
845.719; -135.750; -792.000; -884.000
845.969;  -14.025;  119.000;  174.000
846.219; -122.700; -738.000; -720.000
846.469;   15.475;  464.000;  432.000
846.718;  -53.375; -115.000;   31.000
846.968; -138.975; -827.000; -827.000
847.218;  -50.900; -224.000; -371.000
847.468;   -6.975; -586.000; -555.000
847.718; -140.675; -827.000; -798.000
847.967; -125.975; -826.000; -915.000
848.217;  -94.175; -449.000; -569.000
848.467;  -73.275; -405.000; -376.000
848.716; -122.850; -708.000; -725.000
848.966;   -1.375; -372.000; -358.000
849.215;  -54.000; -428.000; -419.000
849.465; -103.775; -785.000; -615.000
849.714; -137.325;-1132.000;-1150.000
849.964;  -53.575; -551.000; -613.000
850.213;  -28.225; -393.000; -355.000
850.463;   59.300;  137.000;  340.000
850.712;   14.900; -542.000; -567.000
850.961;   28.600; -739.000; -678.000
851.211;  114.625; -513.000; -504.000
851.460;  172.250; -635.000; -650.000
851.709;  560.375;  -25.000;   18.000
851.958; 9729.825; -912.000; -750.000
852.208;14154.975; -859.000; -879.000
852.457;  544.975; -181.000;  -13.000
852.706;   67.650; -791.000; -823.000
852.955;    9.500; -507.000; -528.000
853.204;  -66.425; -521.000; -461.000
853.453;  -70.825; -418.000; -458.000
853.702; -135.925; -660.000; -750.000
853.951; -116.050; -532.000; -520.000
854.200; -130.850; -613.000; -562.000
854.449; -128.400; -695.000; -661.000
854.698;  -92.800; -340.000; -279.000
854.946;  -76.475; -181.000; -284.000
855.195; -155.325; -843.000; -868.000
855.444;  -93.875; -395.000; -420.000
855.693; -132.575; -345.000; -432.000
855.941; -103.925; -387.000; -516.000
856.190;  -66.200; -256.000; -382.000
856.439; -129.275; -652.000; -703.000
856.687;  -70.050;  -99.000;  -72.000
856.936; -125.350; -621.000; -323.000
857.184; -191.500;-1067.000;-1020.000
857.433; -113.300; -423.000; -512.000
857.681; -160.250; -989.000; -953.000
857.930;  -96.050; -282.000; -433.000
858.178; -171.100; -856.000; -929.000
858.427; -155.725; -802.000; -781.000
858.675; -132.625; -377.000; -544.000
858.923; -111.225; -527.000; -819.000
859.172; -178.000;-1094.000;-1070.000
859.420;  -97.425; -339.000; -239.000
859.668; -140.100; -624.000; -628.000
859.916;  -43.975;  109.000;  115.000
860.164; -116.425; -699.000; -603.000
860.413;  279.675; -878.000; -696.000
860.661;  268.350; -709.000; -577.000
860.909;  -89.325; -339.000; -325.000
861.157;  -88.125; -277.000; -444.000
861.405; -130.700; -534.000; -670.000
861.653;   21.450;  310.000;  310.000
861.901;  170.350; -543.000; -613.000
862.149;   10.650; -801.000; -824.000
862.396;  -81.200; -297.000; -187.000
862.644; -102.550; -368.000; -347.000
862.892;  -37.150;   98.000;  138.000
863.140; -107.875; -549.000; -530.000
863.388; -162.650; -815.000; -759.000
863.635; -148.125; -642.000; -601.000
863.883;  -20.625;  231.000;  190.000
864.131; -103.800; -288.000; -357.000
864.378; -144.675; -675.000; -540.000
864.626; -108.700; -347.000; -415.000
864.873; -122.400; -556.000; -505.000
865.121; -148.700; -714.000; -799.000
865.368;  -66.125; -173.000;   75.000
865.616;  -49.675;  -33.000;  -40.000
865.863;  -80.675; -462.000; -506.000
866.111; -114.200; -795.000; -824.000
866.358;   33.300; -426.000; -420.000
866.605; 2029.925;  -64.000; -804.000
866.853; 2489.700; -621.000; -537.000
867.100;  -20.400; -728.000; -775.000
867.347; -103.225; -672.000; -611.000
867.594;  -93.225; -740.000; -714.000
867.841;   90.700;   97.000;   17.000
868.089; -140.425; -746.000; -698.000
868.336; -122.050; -477.000; -420.000
868.583; -138.750; -637.000; -741.000
868.830;  -61.150; -131.000; -170.000
869.077; -164.900; -859.000; -787.000
869.324; -141.900; -502.000; -458.000
869.571; -128.325; -398.000; -430.000
869.818; -132.900; -485.000; -439.000
870.065; -110.050; -439.000; -513.000
870.311; -121.300; -456.000; -542.000
870.558; -122.300; -332.000; -311.000
870.805;  -91.875; -320.000; -384.000
871.052; -126.150; -494.000; -369.000
871.298;  -70.575; -204.000; -131.000
871.545;  -69.300; -151.000; -185.000
871.792; -106.325; -173.000; -222.000
872.038;  -70.525;   43.000; -126.000
872.285; -127.750; -496.000; -387.000
872.532; -109.875; -357.000; -387.000
872.778;   -2.150;  556.000;  403.000
873.025; -112.250; -384.000; -359.000
873.271;    8.050;  501.000;  578.000
873.517;  -33.225; -133.000; -209.000
873.764;  -37.475; -193.000;  -80.000
874.010;  -62.425; -143.000; -230.000
874.257;  -46.475;  123.000;   90.000
874.503; -134.925; -579.000; -479.000
874.749;  -75.300;   31.000;  275.000
874.995;  -75.550;  -80.000;  -20.000
875.242; -112.700; -540.000; -478.000
875.488; -111.975; -414.000; -439.000
875.734;  -58.775; -106.000; -234.000
875.980;  183.575; -872.000;-1032.000
876.226;  427.425; -157.000; -255.000
876.472;   -6.875;  343.000;  237.000
876.718;  -49.775;  184.000;  158.000
876.964;  -56.400;   56.000;   55.000
877.210; -136.225; -547.000; -677.000
877.456; -132.975; -630.000; -557.000
877.702; -185.200; -821.000; -832.000
877.948; -116.775; -377.000; -497.000
878.193;  -13.175;  361.000;  255.000
878.439;  -99.375; -487.000; -472.000
878.685; -104.075; -272.000; -343.000
878.931; -136.950; -618.000; -676.000
879.176;  -92.325; -201.000; -201.000
879.422; -179.850; -933.000; -820.000
879.668;   43.300;   10.000;   79.000
879.913;  156.725;   53.000;  137.000
880.159;  -60.075; -112.000;  -17.000
880.404;  -74.200; -152.000; -162.000
880.650;  -51.525;   91.000;  141.000
880.895; -170.150; -670.000; -710.000
881.141; -129.025; -454.000; -428.000
881.386; -156.450; -503.000; -658.000
881.631;  -92.000; -311.000; -166.000
881.877;  -53.725;  112.000;  -13.000
882.122; -144.300; -684.000; -600.000
882.367;  -94.450; -136.000; -186.000
882.612;  -85.800;  -80.000; -176.000
882.858; -175.525; -877.000; -823.000
883.103; -119.300; -297.000; -267.000
883.348; -162.075; -759.000; -852.000
883.593; -149.050; -677.000; -602.000
883.838;  -67.950; -311.000;  -24.000
884.083;   25.150;  353.000;  288.000
884.328;  -98.100; -564.000; -545.000
884.573;  -65.550; -196.000; -143.000
884.818;  171.550; -694.000; -531.000
885.063;  228.200; -348.000; -315.000
885.308; -101.225; -475.000; -398.000
885.553;  -24.125;  245.000;  325.000
885.797; -121.525; -545.000; -615.000
886.042;  -74.550;    8.000;   58.000
886.287;  -97.150; -253.000; -211.000
886.532;  -50.625;   26.000;  204.000
886.776; -103.200; -407.000; -525.000
887.021; -156.800; -621.000; -574.000
887.265; -152.325; -685.000; -689.000
887.510; -136.200; -557.000; -496.000
887.755; -109.925; -194.000; -164.000
887.999; -131.025; -552.000; -575.000
888.244;  -70.650;  -58.000;  161.000
888.488;  -18.650;  371.000;  393.000
888.732; -127.750; -368.000; -520.000
888.977; -141.825; -622.000; -567.000
889.221; -161.775; -683.000; -659.000
889.465; -137.475; -422.000; -566.000
889.710;  -93.425;  -56.000; -299.000
889.954;   -7.850;  579.000;  467.000
890.198; -154.275; -584.000; -707.000
890.442; -163.600; -716.000; -712.000
890.687; -161.100; -800.000; -753.000
890.931; -100.675; -273.000; -210.000
891.175; -143.300; -502.000; -500.000
891.419;  -81.525; -105.000; -110.000
891.663; -105.650; -239.000; -112.000
891.907; -168.850; -801.000; -545.000
892.151; -178.675; -920.000; -815.000
892.395; -130.250; -274.000; -387.000
892.638;  -35.125;  408.000;  291.000
892.882; -188.650; -780.000; -867.000
893.126;   10.800;  758.000;  558.000
893.370;  -90.400; -167.000; -168.000
893.614; -159.375; -714.000; -715.000
893.857; -124.525; -183.000; -197.000
894.101; -130.150; -527.000; -631.000
894.345;  -61.125;  300.000;  150.000
894.588;   -4.050;  569.000;  380.000
894.832;  -95.875; -178.000;  -84.000
895.075;  -94.275;   15.000;  -92.000
895.319; -142.775; -552.000; -420.000
895.563; -112.275; -413.000; -353.000
895.806; -158.225; -628.000; -741.000
896.049;  -66.875; -576.000; -368.000
896.293;   85.450;  527.000;  405.000
896.536;  -68.925; -465.000; -468.000
896.779;  -68.075; -149.000;   -1.000
897.023; -142.900; -751.000; -714.000
897.266;  -40.650;  325.000;  269.000
897.509; -177.425; -900.000; -901.000
897.752;  -39.700;  149.000;  171.000
897.996; -192.700; -972.000; -864.000
898.239;  -58.475;  168.000;  102.000
898.482; -134.925; -431.000; -453.000
898.725;  -49.875;  101.000;   53.000
898.968; -157.650; -609.000; -744.000
899.211; -109.175; -513.000; -361.000
899.454; -121.925; -633.000; -539.000
899.697;  -66.900;   90.000;  -43.000
899.940; -167.600; -761.000; -757.000
900.182; -111.925; -335.000; -405.000
900.425; -103.675; -150.000; -298.000
900.668;  -33.775;  491.000;  350.000
900.911; -104.875; -292.000; -345.000
901.154;  -67.050;  141.000;   -3.000
901.396; -150.675; -407.000; -412.000
901.639; -139.925; -430.000; -496.000
901.882; -178.675; -790.000; -809.000
902.124;  -95.750;  -29.000; -143.000
902.367; -121.875; -315.000; -361.000
902.609; -145.075; -476.000; -453.000
902.852;  -90.525; -108.000; -260.000
903.094; -125.400; -458.000; -337.000
903.337;  -81.625;  -26.000;   53.000
903.579; -110.600; -228.000; -441.000
903.821; -156.450; -597.000; -744.000
904.064;  -69.225;   85.000;  127.000
904.306;  -85.100; -126.000; -166.000
904.548; -101.750; -152.000; -366.000
904.790; -104.825; -195.000; -340.000
905.033; -140.800; -625.000; -577.000
905.275; -138.850; -513.000; -524.000
905.517;   41.200;  468.000;  256.000
905.759;  -67.400; -667.000; -761.000
906.001; -100.275; -322.000; -369.000
906.243;  -75.725; -162.000; -224.000
906.485;   99.925; -265.000; -207.000
906.727;  141.625; -499.000; -542.000
906.969;  -34.300;  -30.000; -135.000
907.211;  103.600; -316.000; -382.000
907.453;  291.625; -188.000; -237.000
907.695;   23.975; -158.000; -385.000
907.936;   34.650;  818.000;  706.000
908.178;  -50.500;   92.000; -135.000
908.420;  -86.275; -111.000; -162.000
908.662; -146.525; -633.000; -682.000
908.903; -105.675; -208.000; -123.000
909.145;  -71.575; -240.000; -305.000
909.386;  -10.150;  315.000;  280.000
909.628;   32.075;  363.000;  397.000
909.870;   -9.850;   29.000;  264.000
910.111; -104.925; -809.000; -949.000
910.353;    3.200; -123.000; -161.000
910.594;    8.225; -574.000; -606.000
910.835;   94.675; -265.000; -326.000
911.077;  153.825; -503.000; -604.000
911.318;  310.825; -505.000; -471.000
911.559;  478.400; -577.000; -880.000
911.801; 1315.075; -284.000; -280.000
912.042; 9852.625;  -50.000; -159.000
912.283;28590.975;  404.000;  371.000
912.524; 5101.700; -396.000; -457.000
912.765;  538.200; -193.000;   79.000
913.006;  262.350; -307.000; -338.000
913.247;   60.050; -270.000; -290.000
913.488;   -7.500;  -43.000;   30.000
913.729;  -83.200; -373.000; -373.000
913.970;  -71.550;  -96.000; -292.000
914.211;  -72.575; -160.000; -198.000
914.452;  -59.825; -118.000;  -11.000
914.693;    7.875;  510.000;  592.000
914.934;    3.525;  510.000;  440.000
915.175;  -71.375;   53.000;  -95.000
915.415;  -75.100; -137.000;   27.000
915.656;  -84.175;  -28.000;  192.000
915.897;  -83.500; -252.000;  -82.000
916.137;  -76.050;   74.000;   -9.000
916.378; -129.950; -573.000; -517.000
916.619; -102.150; -159.000;  -63.000
916.859;  -46.050;  303.000;  330.000
917.100;  114.900; 1655.000; 1070.000
917.340;   40.975;  930.000;  728.000
917.581;   51.075;  965.000;  789.000
917.821;  -45.000; -171.000;  143.000
918.061;   25.425; -199.000;  -72.000
918.302;  -64.700; -152.000; -211.000
918.542;  -42.600;  -22.000;    3.000
918.782;   30.325;  369.000;  377.000
919.023;  115.950;  360.000;  427.000
919.263; 1688.825; 8131.000;  202.000
919.503; 1202.175; -137.000;  -54.000
919.743;  660.600;  390.000;  266.000
919.983;  307.775; -134.000;  -26.000
920.223;   95.725;  135.000;   14.000
920.463;  140.400;  631.000;  554.000
920.703;  119.900;   84.000;   39.000
920.943;  181.100; -110.000;   90.000
921.183;  241.350; -414.000; -405.000
921.423;  497.650;  307.000;  546.000
921.663;  724.350; -174.000; -257.000
921.903; 1531.000;  237.000;  173.000
922.143; 8250.675;  372.000;  389.000
922.383;33734.650;  158.000;  115.000
922.622;13264.450; -120.000;  -15.000
922.862; 1372.625;  796.000;  785.000
923.102;  493.225;  -51.000;   33.000
923.341;  205.850;   59.000;   74.000
923.581;   89.500;  450.000;  360.000
923.821;   15.100;  301.000;  398.000
924.060;    9.925;  351.000;  193.000
924.300;  -72.400;  -16.000; -128.000
924.539;  -22.450;  584.000;  473.000
924.779;  -10.850;  812.000;  597.000
925.018;  -52.375;  247.000;  353.000
925.257;    6.850;  595.000;  666.000
925.497;  -48.425;  447.000;  412.000
925.736;  -74.950;  -35.000;  102.000
925.975;  -11.500;  687.000;  669.000
926.214;    8.725;  907.000;  850.000
926.454;    1.775;  706.000;  757.000
926.693;  -38.750;  419.000;  543.000
926.932;   37.425; 1021.000;  825.000
927.171;   62.600; 1107.000; 1044.000
927.410;   58.700; 1144.000;  967.000
927.649;   21.300;  924.000;  742.000
927.888;  -22.975;  590.000;  564.000
928.127;   -2.050;  680.000;  678.000
928.366;   20.150;  842.000;  826.000
928.605;   26.450;  831.000;  737.000
928.844;  221.050; 1451.000; 1393.000
929.083;  601.875;  770.000;  613.000
929.321;  360.050; 1335.000; 1359.000
929.560;   87.000; 1158.000; 1122.000
929.799;  -34.725;  574.000;  475.000
930.038;   72.125; 1025.000; 1394.000
930.276;  -48.450;  334.000;  397.000
930.515;   -6.250;  827.000;  681.000
930.753;  -34.750;  614.000;  589.000
930.992;   -7.225;  664.000;  717.000
931.230;   -5.125;  847.000;  847.000
931.469;  164.000; 2162.000;  892.000
931.707;   70.350;  840.000;  751.000
931.946;   61.950; 1278.000; 1344.000
932.184;   48.875; 1437.000; 1175.000
932.423;   43.825; 1265.000;  963.000
932.661;   98.625; 1296.000; 1428.000
932.899;   32.375;  987.000;  821.000
933.137;   15.700;  754.000;  564.000
933.376;  149.350; 1664.000; 1335.000
933.614;  152.675; 1759.000; 1196.000
933.852;   62.625; 1357.000; 1171.000
934.090;  128.825; 1722.000; 1747.000
934.328;  106.275; 1252.000; 1457.000
934.566;   82.475; 1431.000; 1110.000
934.804;  138.700; 1263.000; 1309.000
935.042;  426.175; 1861.000; 1850.000
935.280; 1670.225; 2088.000; 2063.000
935.518; 1795.425; 2113.000; 2007.000
935.756;  393.275; 2481.000; 2316.000
935.994;  174.650; 1808.000; 1751.000
936.231;  337.475; 2890.000; 2950.000
936.469;  205.850; 2367.000; 2378.000
936.707;  155.200; 2220.000; 2167.000
936.945;  219.150; 2825.000; 2882.000
937.182;  190.825; 2679.000; 2741.000
937.420;  298.400; 3602.000; 3031.000
937.657;  405.725; 3365.000; 3478.000
937.895;  359.300; 3331.000; 3488.000
938.133;  302.900; 3540.000; 3528.000
938.370;  336.100; 3896.000; 4191.000
938.607;  401.325; 4488.000; 4205.000
938.845;  530.525; 5587.000; 5549.000
939.082;  480.725; 5387.000; 5177.000
939.320;  518.700; 5799.000; 5728.000
939.557;  621.050; 6549.000; 6491.000
939.794;  714.875; 7285.000; 7097.000
940.031;  889.125; 8421.000; 8368.000
940.269; 1138.825; 9552.000; 9107.000
940.506; 1088.400;10901.000;10507.000

