
Integration time [ms]: 100.000
Averaging Nr. [scans]: 40
Smoothing Nr. [pixels]: 0
Data measured with spectrometer [name]: 2101013U2
Wave   ;Sample   ;Dark     ;Reference
[nm]   ;[counts] ;[counts] ;[counts] 

394.013;   34.693; -450.257; -315.536
394.305;  163.340; -461.258; -419.536
394.596; 1537.617; -676.269; -527.514
394.887; 4091.762; -796.268; -654.518
395.178; 1489.824;  145.736;   11.476
395.470;   84.687; -210.263; -356.526
395.761;  130.580;  305.734;  394.479
396.052;  104.594; -545.284; -306.489
396.343;   87.852; -557.276; -454.503
396.634;   29.689; -200.279; -290.497
396.926;   20.709; -618.268; -565.517
397.217;   40.957;   11.725;  -17.504
397.508;   14.001; -366.273; -154.507
397.799;   14.064; -555.279; -571.497
398.090;   -2.667; -973.280; -902.495
398.381;   68.129;   11.708;  -11.473
398.672;  -25.794; -585.292; -742.473
398.963;   14.222; -348.279; -373.498
399.254;   66.941;   54.709; -209.475
399.545;  -48.174;-1017.266; -883.520
399.836;   46.339; -407.277; -343.501
400.127;   38.026; -205.295; -209.468
400.418;   35.144; -423.274; -392.506
400.709;   27.442; -359.281; -333.493
401.000;   33.021; -268.291; -309.476
401.290;   89.000;  225.698;  115.545
401.581;   72.523; -166.286; -228.485
401.872;   40.868; -542.298; -486.462
402.163;   59.217; -313.296; -252.467
402.454;   91.167; -123.291; -163.475
402.744;   32.407; -844.297; -813.465
403.035;  218.569; -226.293;  -86.471
403.326;  287.959; -366.292; -384.474
403.617;  301.311;  204.701;  165.539
403.907;  349.100; -593.283; -679.490
404.198; 3515.146; -545.307; -599.446
404.489; 8946.481; -618.283; -588.491
404.779; 2560.005; -618.302; -660.456
405.070;  272.404;  -67.304; -174.451
405.360;  457.596; -259.293; -238.472
405.651;  467.018;  125.699;   98.542
405.942;  163.092;  209.714;  127.516
406.232;   82.385; -432.285; -413.487
406.523;  230.188;  641.706;  758.530
406.813;   41.520; -579.286; -644.484
407.104;  191.728;  261.708;  144.527
407.394;   62.938; -604.299; -591.462
407.685;  136.409;  336.715;  222.513
407.975;   43.079; -400.283; -382.490
408.265;   94.934; -134.289; -190.478
408.556;   56.263; -472.291; -459.475
408.846;  172.314;  474.706;  429.530
409.137;   86.169;   -1.288; -216.480
409.427;   75.034; -193.285; -271.487
409.717;   37.405; -776.273; -692.508
410.007;  132.127;    4.715; -170.486
410.298;   95.004; -360.295; -342.469
410.588;   91.506; -495.285; -510.486
410.878;   31.708; -792.287; -873.482
411.168;  104.371; -481.298; -478.463
411.459;  122.273; -295.283; -242.489
411.749;   83.512; -609.292; -507.474
412.039;   84.542; -755.289; -386.480
412.329;  224.330;   40.722;  132.501
412.619;  214.020;  -62.286; -148.485
412.909;  349.013;  639.711;  594.521
413.199;  291.758; -130.280; -251.495
413.490;  364.876;  521.710;  352.523
413.780;  203.438;-1013.279; -913.496
414.070;  390.428;  -46.276;  235.497
414.360;  391.651; -729.278; -666.498
414.650;  521.928; -726.288; -688.482
414.940;  710.662; -538.280; -441.496
415.230; 1179.074;   50.712;   74.519
415.520; 8317.017;  155.730;   66.486
415.809;33556.192; -305.281; -125.493
416.099;25482.291; -388.277; -229.501
416.389; 7617.542;  435.726;  236.494
416.679; 4446.791;   91.738;   85.473
416.969;  748.613; -527.287; -503.483
417.259;  623.340;  341.721;  171.503
417.549;  857.390;  522.718;  318.508
417.838; 2356.962; -205.268; -147.518
418.128; 8143.358;  650.710;  492.522
418.418; 6730.137; -491.272; -579.509
418.708; 4458.467;    9.726;  -48.506
418.997;17375.437; -474.275; -480.505
419.287;17889.800; -733.273; -790.507
419.577;17546.497; -160.283; -123.489
419.866;56142.739; -588.277; -498.501
420.156;54592.362; -242.270;  -55.513
420.446; 9107.907; -112.263;  -26.526
420.735;  847.530; -376.271; -446.512
421.025;  890.050; 1830.722;  315.502
421.314;  530.952; -203.271; -226.512
421.604;  672.253;   89.732;  233.484
421.893;  389.223; -705.271; -602.511
422.183;  278.633; -487.263; -461.526
422.472;  375.375;  -36.271; -107.511
422.762;  383.233; -416.266; -379.521
423.051;  270.128; -916.276; -916.503
423.341;  323.852; -491.273; -439.507
423.630;  391.890; -121.265;   15.477
423.919;  421.711;   58.725;   49.495
424.209;  476.214;  -31.263;   56.473
424.498;  637.609;   68.732;  161.483
424.787; 1452.266; -535.267; -601.518
425.077; 4233.888;   34.735;   29.478
425.366; 4669.396; -734.262; -744.528
425.655;13463.953;  639.727;  259.493
425.945;34630.449; -313.247; -268.554
426.234;18436.798;  117.741;  300.467
426.523; 7094.979;  -86.259; -350.534
426.812; 9679.903;  107.734;  159.480
427.101;14736.874; -127.269; -323.515
427.390;17231.941;  -55.270;  -86.514
427.680; 2433.302; -624.257; -411.538
427.969;  472.165; -330.255; -301.540
428.258;  354.867; -385.257; -477.536
428.547;  499.742;  449.728;  397.490
428.836;  708.459; -421.253; -398.543
429.125;  945.081; -199.259;  -72.534
429.414;  771.561; -330.251; -294.548
429.703; 4418.511; -231.251; -213.548
429.992;13703.990; -938.250; -828.549
430.281; 8746.649; -397.264; -331.524
430.570;  601.175;  -21.252;   32.454
430.859;  382.378;  279.741;  352.466
431.148;  392.794;  636.752;  631.446
431.437;  316.549;  391.748;  367.454
431.725;  195.344; -544.257; -481.536
432.014;  213.043; -845.253; -756.545
432.303;  394.234; -149.239; -105.569
432.592;  545.157; -460.263; -178.525
432.881; 1399.545; -601.248; -437.554
433.169; 9419.916; -343.255;  -61.540
433.458;19086.374;  445.765;  540.424
433.747; 7501.527; -397.261; -289.529
434.036;  917.380; -275.242; -280.564
434.324; 2847.580; -395.249; -379.551
434.613; 5189.923;   40.757;  159.437
434.902; 1502.622;  333.760;  439.433
435.190;  262.383;   75.761;  295.431
435.479;  148.651;  -52.245;   83.441
435.767;   78.711; -411.244; -427.561
436.056;  202.325; -340.242; -294.563
436.345;  479.475; -372.240; -223.568
436.633;  452.650;   60.750;  383.450
436.922;  176.478;  208.760;  414.432
437.210;  196.937; -194.236;    1.426
437.499;  419.322; -583.235; -432.576
437.787;  495.487; -339.236;  -10.574
438.075;  171.664;   56.761;  162.430
438.364;  193.342;  -44.238;  250.429
438.652;   95.592; -286.226; -138.592
438.941;   81.199;    3.770;  269.415
439.229;  -12.928; -665.252; -466.545
439.517;   31.382; -160.234;  -85.577
439.806;  -13.014; -501.225; -290.595
440.094;  141.316;  377.766;  650.421
440.382;   38.596; -653.233; -302.580
440.670;   46.422; -361.235; -285.576
440.959;  -12.569; -347.223; -170.599
441.247;   43.913; -151.229; -109.587
441.535;   30.555; -266.235;   31.423
441.823;  -21.912; -497.234; -305.578
442.111;  154.243;  173.771;  327.412
442.400;  288.050; -628.245; -335.559
442.688;  472.341; -111.234; -620.579
442.976;  223.310; -786.213; -450.617
443.264;   30.443; -324.224; -364.597
443.552;   53.343; -258.226;   51.408
443.840;  128.728;  602.765;  876.423
444.128;   95.170;  265.767;  269.420
444.416;  -34.129; -694.228; -312.588
444.704;   21.241; -465.219;  -92.605
444.992;   54.097;   -0.226;  240.407
445.280;   12.675; -517.230;  -94.585
445.568;   -7.785; -694.212; -396.618
445.856;  137.648; -174.221;  357.398
446.143;  215.887;  -54.220;   -7.604
446.431;  206.350;  -25.228;  625.411
446.719;  159.939;  489.783;  675.391
447.007;  136.518;  481.769;  705.416
447.295;  159.878;  597.777;  871.402
447.583;   81.860; -464.229;  -34.587
447.870;   93.869; -434.221; -202.601
448.158;  214.998; -104.230;  129.415
448.446;  121.688; -800.219; -338.604
448.733;  132.045;   13.776;  269.403
449.021;  185.789;   60.788;  341.382
449.309;  160.732; -296.210;  208.379
449.596;  229.510;  128.783;   59.392
449.884;  187.686; -571.222; -325.600
450.172;  278.982; -756.227; -406.590
450.459;  617.966;  645.786;  780.387
450.747; 3758.633; -411.218; -147.608
451.034;12054.602;  493.772;  889.411
451.322; 9775.969; -413.214; -170.614
451.609;  743.672;  292.777;  508.403
451.897;  865.932; -550.203; -183.634
452.184; 2657.353; -622.223; -400.598
452.472; 2385.032;   97.792;  269.375
452.759;  337.789;  512.781;  864.395
453.047;   70.636; -407.212; -125.617
453.334;   19.098; -732.219; -216.606
453.621;   19.497; -438.214; -161.615
453.909;  101.447;   13.796;  384.368
454.196;   94.376; -299.199; -123.641
454.483;  215.422;  317.798;  540.364
454.771;  141.561; -215.208;  196.374
455.058;   49.765; -316.207;  102.374
455.345;  142.392;   71.807;  344.347
455.632;  121.419; -128.207;  235.373
455.919;   43.753;  -82.196;  182.354
456.207;  -53.443; -774.198; -450.642
456.494;  -15.163; -475.200;  -66.639
456.781;   23.642; -399.202; -198.635
457.068;   69.452; -253.206;  -29.628
457.355;   -7.797; -698.206; -401.629
457.642;   -6.691; -552.205; -290.630
457.929;   13.506; -778.194; -417.651
458.216;  107.412; -575.212; -354.617
458.503;  387.787; -173.193;  -19.652
458.790;  428.183; -864.208; -630.625
459.077;  376.348;  -77.202;  110.364
459.364; 1186.598; -350.195; -210.649
459.651; 2504.449;  -46.206;  220.372
459.938; 1129.772; -864.209; -665.623
460.225;  118.702;  132.799;  276.363
460.512;  -40.575; -836.197; -688.645
460.799;  117.607;  -32.218;  320.392
461.086;   94.517; -370.200; -251.640
461.372;   18.882; -509.198; -279.642
461.659;   54.979; -165.196;  108.354
461.946;   27.610; -445.193;  -54.651
462.233;  220.539;  842.800;  888.361
462.519;  495.811; -814.201; -464.639
462.806; 1489.750; -768.197; -497.645
463.093; 1265.885; -445.191;  -66.656
463.380;   -3.716; -920.186; -824.664
463.666;   41.202; -259.197;  -18.646
463.953;  130.317; -406.195; -243.648
464.239;  270.767; -173.195;  -77.648
464.526;  400.204;  413.806;  743.350
464.813;  306.098; -565.190; -304.658
465.099;  340.961;  606.807;  607.348
465.386;  263.041;  903.807;  921.348
465.672;    1.125; -694.197; -522.645
465.959;   31.320; -598.188; -520.662
466.245;    4.741; -468.193; -359.652
466.532;   55.264; -109.195;   63.352
466.818;   17.183; -357.186; -216.664
467.104;  -17.244; -488.182; -415.672
467.391;  -24.924; -628.189; -459.658
467.677;   23.613; -289.186;    9.335
467.964;  -12.767; -682.189; -471.660
468.250;   34.716; -331.186; -160.665
468.536;   51.102;   90.811;  180.341
468.822;  -13.620; -821.184; -574.668
469.109;  156.027;  351.827;  471.311
469.395;  199.528;  729.808;  787.346
469.681;  228.856;   46.811;  156.341
469.967; 1787.961; -699.188; -382.660
470.254; 3961.021; -494.188; -306.662
470.540; 2462.103; -601.196; -476.646
470.826;  372.344; -488.181; -397.675
471.112;  415.484;  288.816;  113.331
471.398;   91.765; -253.183;  -58.670
471.684;   41.203; -626.177; -447.680
471.970;   24.124; -918.180; -981.675
472.256;   51.276; -521.192; -441.654
472.542;   25.015; -499.171; -434.691
472.828;   20.501; -743.182; -607.672
473.114;   22.017; -380.166; -283.700
473.400;   24.147; -504.175; -293.684
473.686;   30.274; -452.166; -400.701
473.972;   40.090; -230.174; -131.687
474.258;  -19.648; -925.173; -843.689
474.544;  329.568; -183.178;   -2.679
474.830;  513.649;  -65.175;   45.316
475.116;  822.650; -123.190; -196.658
475.401; 1125.151; -558.180; -467.676
475.687;  311.900; -725.180; -718.676
475.973;  -12.664; -673.181; -770.673
476.259;  242.302;  736.825;  764.315
476.544;  551.962; -539.176; -437.682
476.830; 1399.160; -398.172; -322.690
477.116; 1224.761; -430.177; -336.682
477.401;  175.726;  346.820;  358.324
477.687;    0.098; -289.175; -405.684
477.973;   44.365;   21.819;   28.326
478.258;  -15.752; -448.163; -348.706
478.544;   34.247;   21.815;   61.334
478.829;  -62.929; -818.171; -738.692
479.115;  -52.865; -749.172; -651.690
479.401;    4.009; -444.174; -449.686
479.686;   51.524; -253.180;  -74.676
479.972;    2.099; -886.178; -776.680
480.257;   49.443; -258.166;  -65.700
480.542;   19.901; -614.170; -469.693
480.828;  240.470; 1288.824; 1392.317
481.113;  -28.757; -464.176; -426.683
481.399;   -4.023; -236.161; -202.711
481.684;  -48.382; -620.166; -462.700
481.969;    9.917; -158.159;  -73.713
482.255;  -20.411; -439.169; -285.695
482.540;    2.574; -569.178; -441.680
482.825;   28.878; -395.187; -404.663
483.110;  135.643;  -85.169; -105.696
483.396;  369.793; -840.157; -652.718
483.681;  753.565;  543.826;  730.313
483.966;  289.060; -696.160; -700.712
484.251;  -14.336; -404.174; -310.687
484.536;    1.080; -356.165; -378.703
484.822;   33.767; -205.173; -218.687
485.107;  -16.037; -599.152; -502.726
485.392;  126.137;  662.836;  541.296
485.677;   75.754;  354.832;  163.302
485.962;  104.090;  160.843;  270.283
486.247;  111.533;  -14.162;   -8.707
486.532;   66.995; -178.166; -325.701
486.817;  173.795;  381.839;  431.291
487.102;  162.568; -453.154; -514.722
487.387; 1081.470; -637.156; -652.718
487.672; 1966.693; -154.164;  -38.705
487.957; 1207.728; -394.160; -286.711
488.241;  332.308; -290.150; -314.729
488.526; 1209.715; -280.152; -148.726
488.811; 1998.252; -881.177; -818.680
489.096; 1412.846; -666.154; -702.723
489.381;  715.686;    3.847;  162.275
489.666;  653.926; -428.161; -510.710
489.950;  213.775;  558.846;  627.277
490.235;  -28.548; -480.151; -458.728
490.520;  -41.900; -756.161; -723.710
490.804;  -30.452; -827.156; -736.719
491.089;   22.927; -469.149; -299.732
491.374;   47.267; -132.164;  -75.704
491.658;   -6.759; -817.147; -717.735
491.943;  116.795; -657.152; -609.727
492.227;  200.788; -178.155;  -38.721
492.512;   45.190; -294.157; -341.717
492.797;  -45.405; -713.149; -716.731
493.081;  -55.881; -588.147; -598.735
493.366;  -36.848; -751.161; -635.711
493.650;  219.757;  831.859;  917.254
493.935;   79.565; -648.147; -447.734
494.219;  -25.508; -778.142; -687.743
494.503;  -32.261; -585.150; -487.730
494.788;   63.555;   46.842;   74.285
495.072;  114.560;  184.850;  434.271
495.356;  236.081; -463.148; -343.733
495.641;  540.527; -812.146; -736.736
495.925;  453.679; -976.156; -903.719
496.209;   23.001; -599.149; -451.732
496.494;  -40.133; -763.142; -544.744
496.778;    7.043; -364.154; -360.722
497.062;  -44.022; -819.156; -627.719
497.346;    4.605; -869.160; -640.711
497.631;  172.460;  580.852;  560.266
497.915;   86.864;  -64.145;  175.261
498.199;   36.318; -341.157; -277.718
498.483;   46.913; -562.152; -508.725
498.767;  245.786;  301.850;  300.271
499.051;  294.899; -126.149; -100.732
499.335;   78.846; -693.149; -739.731
499.619;  -43.823; -381.129; -423.767
499.903;    7.412; -272.155;  -65.721
500.187;   20.677; -588.153; -316.724
500.471;   27.669; -796.152; -595.727
500.755;   93.725;   62.839;  -96.710
501.039;   -6.013; -270.155; -357.721
501.323;   59.909;  -21.141;  264.254
501.607;   20.824; -447.163; -503.706
501.891;    2.995; -607.156; -512.718
502.174;  -38.773; -726.144; -585.741
502.458;   57.924;   89.849;  370.273
502.742;   54.212; -180.138; -191.751
503.026;  191.089; -412.147; -254.734
503.310;  318.891; -437.159; -375.713
503.593;  198.966; -464.147; -325.735
503.877;  124.860; -232.133; -156.760
504.161;  175.405;    2.847;  -50.724
504.444;  178.832; -841.158; -710.716
504.728;  759.166; -487.164; -522.704
505.012; 1075.707; -257.150;  -76.729
505.295;  806.102; -417.161; -212.711
505.579;  827.228; -256.156; -496.719
505.862; 1259.485; -555.145; -333.738
506.146; 1278.769; -681.159; -758.714
506.429;  588.995;  568.841;  461.286
506.713;  127.654; -732.151; -667.728
506.996;  502.143;   90.846;  295.278
507.280;  552.960; -633.165; -474.703
507.563;  374.335; -469.155; -261.721
507.847;  179.878; -423.153; -112.724
508.130;  176.677; -665.161; -456.711
508.413;  239.413; -758.167; -577.700
508.697;  416.013; -151.167;   12.300
508.980;  271.079; -422.153; -312.724
509.263;   20.106; -466.155; -450.720
509.547;   49.232; -124.150;   82.271
509.830;   53.955; -172.160;  140.289
510.113;  106.303;  128.844;  298.281
510.396;   48.886; -530.152; -300.725
510.680;   51.711; -818.145; -812.738
510.963;  191.098;  184.846;  180.277
511.246;  101.066; -493.150; -357.730
511.529;  290.767; -482.145;  -83.739
511.812;  620.031; -250.134;   10.241
512.095;  496.476; -740.151; -396.728
512.378;  103.021; -317.147; -245.736
512.661;   72.146; -703.137; -623.753
512.944;   87.344; -750.142; -637.744
513.227;  107.318; -170.137; -171.752
513.510;   65.477; -479.144; -671.741
513.793;   50.239; -485.140; -435.747
514.076;  161.802;  -43.127;  -39.771
514.359;  159.652; -294.149; -135.732
514.642;  136.973; -442.142; -567.744
514.925; 1129.937;  581.860;  561.253
515.208; 1638.077; -498.134; -443.758
515.491; 1064.868; -276.133; -182.761
515.773;  591.157; -410.143; -337.742
516.056; 3321.454;  249.864;  409.246
516.339; 4309.584; -754.136; -652.755
516.622; 2010.538; -518.150; -488.730
516.904;  539.165;  882.857;  975.257
517.187;  201.467; -730.138; -523.752
517.470;  436.514; -568.143; -510.743
517.752;  707.362; -624.136; -470.756
518.035;  598.527; -708.139; -725.749
518.318;  648.534; -799.136; -744.755
518.600; 4024.247; -300.132; -325.762
518.883; 5586.847;  310.858;   88.256
519.165; 2530.833; -585.138; -426.751
519.448;  437.597;  -61.132;  -19.762
519.730;  226.636; -573.126; -415.773
520.013;  256.514;  588.867;  664.240
520.295;  305.783;  -94.134;  -15.759
520.578;  604.737; -335.131; -305.764
520.860;  840.522; -254.132;   56.238
521.143;  604.639; -763.135; -584.756
521.425;  598.476; -251.125; -279.775
521.707; 1002.052; -622.127; -380.771
521.990; 2813.378; -199.127;  167.229
522.272; 3243.566; -116.140;   -4.748
522.554; 1202.408; -237.143; -157.742
522.836;  248.680;  -24.134;   99.241
523.119;  202.888; -496.148; -189.734
523.401;  168.771; -448.130; -314.766
523.683;  171.072; -865.137; -693.753
523.965;  430.364;  408.862;  260.248
524.247;  441.401;   54.878;  170.220
524.529;  322.583; -451.134; -367.759
524.812;  485.748;   -3.130;  191.234
525.094; 1422.588; -773.138; -631.751
525.376; 2234.437; -143.124;   78.223
525.658; 1354.055; -441.136; -339.754
525.940;   79.958; -805.131; -671.764
526.222;   29.785; -188.136;  -88.755
526.504;   48.331; -190.131;   32.237
526.786;   27.386; -960.133; -647.760
527.068;  105.618; -124.123;  -67.778
527.349;   -0.274; -865.137; -774.754
527.631;  138.247; -137.132;   22.238
527.913;  244.076; -664.127; -450.771
528.195;  308.493; -761.125; -639.774
528.477;  383.927;  -93.134;  -30.758
528.759;  281.973; -648.130; -522.766
529.040;  148.267; -569.123; -293.778
529.322;   87.646; -235.125;  -10.774
529.604;   91.700;  -47.130;   93.233
529.886;   47.610; -546.126; -302.773
530.167;   73.090;  232.870;  192.235
530.449;   47.870;    1.853;   63.265
530.731;   94.675; -572.122; -459.779
531.012;  139.100; -513.120; -216.784
531.294;  132.371; -118.116;  -43.792
531.575;  215.001;  290.875;  538.225
531.857;  134.896; -548.135; -266.757
532.138;  118.532; -113.141;   40.254
532.420;  121.641;  294.865;  403.244
532.701;   65.689; -722.133; -751.760
532.983;  202.492;  232.867;  182.239
533.264;   62.133; -243.126;  175.228
533.546;  -50.091; -491.136; -508.755
533.827;   34.010;  173.867;   -1.759
534.109;   15.571; -352.135;  -80.757
534.390;   96.427; -725.132; -582.762
534.671;  320.216; -270.135;  -82.756
534.953;  203.245; -751.123; -611.779
535.234;   61.803; -426.117; -255.789
535.515;  -44.365; -891.119; -735.785
535.796;   13.221; -431.128; -193.770
536.078; -105.064;-1050.124; -904.777
536.359;    0.546;  -22.123;    3.221
536.640;  -14.056; -480.125; -197.774
536.921;  168.907;  225.871;  143.232
537.202;  541.110;  -87.138;  -16.751
537.483;  677.787;  251.869;  377.236
537.764;  271.841;   17.870;   98.235
538.045;  -25.224; -543.134; -371.758
538.326;  -15.166; -596.129; -447.768
538.607;   69.403; -686.127; -476.771
538.888;  272.414;   98.879;    5.218
539.169;  315.383; -704.122; -535.781
539.450;  408.755;  236.871;   16.233
539.731;  259.619; -361.121; -182.783
540.012;  142.875;  199.880;  412.216
540.293;   92.605;   82.876;  158.224
540.574;   -1.054; -895.113; -717.796
540.855;  508.842;  435.879;  377.218
541.136;  677.929;   47.878;  139.220
541.416;  394.248; -161.130; -220.766
541.697;  314.082; -274.131; -170.763
541.978; 1694.144; -270.135; -315.757
542.259; 2121.678; -211.127; -236.771
542.539;  961.764; -191.116; -186.790
542.820;  208.200;  461.875;  480.225
543.101;  143.788;  -52.145;  -77.738
543.381;   43.553; -638.127; -591.771
543.662;  372.150;  159.873; -254.771
543.942;  939.573; -751.127; -830.770
544.223; 1660.231;  193.878;  161.219
544.504; 1104.086; -275.124; -182.777
544.784;  899.235; -592.126; -408.773
545.065; 2487.493;  104.884; -254.791
545.345; 2920.860;  227.881;   14.215
545.626; 1976.995;  -14.113; -108.796
545.906; 1395.215;   77.869;   98.235
546.186;  595.815;   92.874;  -95.773
546.467;  309.739;   99.877;  -95.778
546.747;  493.088;  264.884;  327.210
547.027;  589.509;   91.876;  111.223
547.308;  561.372; -376.127; -530.770
547.588;  581.459;  299.871;  371.232
547.868;  254.141;  458.870;  588.235
548.149;  279.177;  609.885;  593.207
548.429;  251.326; -347.127; -299.771
548.709;  367.749; -645.120; -461.784
548.989;  796.621;   84.882;   88.213
549.269; 3371.345;   10.868;  139.239
549.550; 7805.669;  215.877;  117.222
549.830; 6970.191; -758.111; -556.799
550.110; 1358.750; -468.110; -320.801
550.390; 1317.425; -128.122;  -56.779
550.670; 1887.815; -868.114; -783.795
550.950; 1299.666; -509.121; -471.782
551.230;  268.137;  549.879;  460.218
551.510;   40.990; -381.121; -326.782
551.790;   70.284; -173.109; -127.803
552.070;  329.664;  940.877; 1181.223
552.350;  727.789; -492.119; -377.786
552.630;  986.509;   -2.121;   77.219
552.909;  601.269;  181.884;   73.209
553.189;  381.728;  -49.132;   33.237
553.469;  378.839; -703.119; -514.786
553.749;  376.455; -469.127; -357.772
554.029;  289.733;   33.883;  -24.790
554.308;  261.157; -154.115;  -37.794
554.588;  137.220; -196.128; -204.770
554.868;  138.467; -366.121;  -47.782
555.147;  275.529; -114.115;  -46.793
555.427;  981.496; -260.116; -250.792
555.707; 6247.501; -284.115; -200.793
555.986; 7742.170; -719.111; -538.800
556.266; 3973.662;   23.884;   72.210
556.546;  258.815; -888.121; -675.782
556.825;  441.462; -657.114; -556.794
557.105; 2943.068; -125.128;   17.230
557.384; 3443.142;  122.884;  187.209
557.664; 1368.071; -717.116; -508.792
557.943;  233.592; -557.121; -411.782
558.222;  356.900; -345.118; -344.788
558.502;  406.930; -116.115;  -76.793
558.781;  742.325;  194.885;  499.208
559.061;  665.799; -232.118; -227.788
559.340;  458.180;  302.883;  353.211
559.619; 1187.637;   93.884;  148.210
559.899; 1726.907; -239.117; -266.789
560.178; 1538.505; -778.115; -593.793
560.457; 4823.784; -623.117; -562.790
560.736; 6849.021; -472.111; -482.800
561.015; 4510.165; -500.128; -502.769
561.295;  537.558;  180.893;  215.193
561.574;  454.677;  119.885;  116.207
561.853;  703.739;  274.891;  303.197
562.132;  792.233;  -45.114;  182.206
562.411;  660.810;  396.879;  553.219
562.690;  274.349; -592.115; -458.792
562.969;  185.103;  472.888;  630.203
563.248;  543.882; 2966.878; 2487.219
563.527;  486.020; -290.111; -408.800
563.806;  690.476; -650.127; -521.771
564.085;  694.301; -297.105; -206.810
564.364;  434.686; -594.117; -405.790
564.643;  813.135; -276.121; -223.781
564.922; 3020.657;  221.890;  397.198
565.201; 3115.611; -640.109; -700.803
565.479; 1340.048; -297.115; -219.792
565.758;  593.943; -810.128; -712.770
566.037;  765.638; -155.109; -100.803
566.316;  389.043; -286.116;  -28.791
566.595;   79.626;  -17.115;  -12.793
566.873;  112.148; -166.111;  -79.801
567.152;  -25.548; -490.113; -590.797
567.431;   29.263; -113.116;    6.210
567.709;   56.958; -344.107; -212.807
567.988;  489.787; -810.114; -769.794
568.266;  860.026; -160.115;  -68.793
568.545;  655.506; -644.100; -514.819
568.824;  968.047;  160.885;  356.208
569.102;  987.111; -351.114; -235.794
569.381;  447.996; -492.116; -407.792
569.659;  -21.452; -553.113; -553.796
569.938;  112.730; -743.122; -465.780
570.216;  209.166; -225.109; -225.804
570.494;   12.115; -632.114; -572.795
570.773;   45.140;  202.879;  114.218
571.051;   36.942; -373.123; -357.778
571.330;  119.770; -221.113; -174.796
571.608;   90.802; -181.098; -173.823
571.886;  -25.336; -671.111; -581.799
572.164;  -12.958; -739.121; -621.782
572.443;   -9.945; -562.105; -512.811
572.721;  -21.240; -399.117; -289.790
572.999;   -8.948; -280.117; -168.788
573.277;  114.897;  379.894;  620.191
573.555;  475.100;   94.894;   37.190
573.834; 2265.426;  -86.117; -114.788
574.112; 2541.236;  880.893;  811.193
574.390;  792.872; -143.111;  -96.801
574.668;   36.104;  -91.112;  -61.797
574.946;   19.600; -165.106; -187.810
575.224;   28.236;   71.891;  -16.803
575.502;    1.165; -200.116; -204.791
575.780;  -60.645; -767.112; -829.798
576.058;  231.121; 1589.889; 1004.200
576.336;   -1.198; -210.110; -129.801
576.614;  -24.770; -511.112; -340.798
576.891;  174.206; -711.115; -823.794
577.169;  834.775; -158.108; -285.805
577.447;  932.085;  169.893;  202.193
577.725;  382.686;  629.888;  854.201
578.003;   45.283;  -71.112; -371.798
578.280;  152.191; -208.104; -242.812
578.558;  107.430; -450.115; -422.793
578.836;  162.840; -210.114; -145.795
579.114;   84.203; -630.112; -670.797
579.391;   73.554;   -6.117;  -18.789
579.669;  -51.518; -595.114; -704.794
579.947;  283.431; -326.107; -127.806
580.224;  590.931; -692.107; -524.806
580.502;  513.936;  127.893;   76.193
580.779;   41.711;  -42.117;   75.210
581.057;  -52.359; -584.109; -470.804
581.334;  -89.867; -726.102; -695.815
581.612;   37.476;   54.895;  511.190
581.889;    2.124;  -83.101; -129.818
582.167;  -24.009; -298.099; -190.821
582.444;  -79.433; -845.102; -814.817
582.721;  111.193;  657.899;  715.183
582.999;  105.338; -326.100; -167.821
583.276;  957.697; -812.123; -713.779
583.553; 1234.987; -364.102; -294.816
583.831;  455.737; -607.104; -631.812
584.108;   85.223;  349.892;  174.195
584.385;   52.083; -122.102;  -98.815
584.662;  -28.227; -651.111; -828.801
584.940;   38.547;  204.889;  204.199
585.217;   -9.127;  -73.113; -303.796
585.494;   56.283;   71.890;  118.198
585.771;  340.367; -250.109; -354.804
586.048;  799.822; -196.113;  -76.796
586.325;  525.176; -721.110; -773.801
586.602;  127.066;  230.896;  213.188
586.879;   33.884; -499.100; -580.820
587.156;  106.602; -156.105; -331.810
587.433;   12.490; -701.102; -667.817
587.710;  101.856;  152.888;  234.202
587.987;  454.908; -264.105; -236.811
588.264; 1136.533;  315.888;  387.202
588.541; 1971.369;  -61.104;   26.187
588.818; 4039.220;   72.892;  171.196
589.095; 3467.464; -163.104; -174.812
589.371;  593.290; -459.109; -414.804
589.648;   59.086; -581.107; -437.807
589.925;   88.491; -517.114; -621.795
590.202;   94.556; -741.112; -607.798
590.478;  174.635; -166.105;  -73.811
590.755;  409.027; -241.108; -132.806
591.032; 3853.679; -741.110; -699.802
591.308; 5453.875; -732.094; -790.831
591.585; 2786.028; -573.110; -560.802
591.862;  324.042;-1056.102; -950.817
592.138;  141.749; -475.108; -474.805
592.415;  257.767; -486.104; -495.813
592.691; 2120.789;  460.896;  518.188
592.968; 2874.555; -208.098; -123.824
593.244; 1385.388; -695.116; -595.790
593.521;  125.442; -105.102;  -42.817
593.797;   41.502; -810.122; -720.780
594.074;  576.145; -611.096; -588.826
594.350;  957.083;  828.905;  729.172
594.626;  472.073; -303.111; -283.801
594.903;  235.768; -643.101; -645.817
595.179;  282.971;  243.896;  418.187
595.455;   27.387; -136.107; -150.807
595.731;   31.623;  -19.103;  -38.814
596.008;   -4.658; -464.111; -434.800
596.284;   85.211; -187.100; -242.820
596.560;  147.383; -501.093; -493.833
596.836;  340.229; -173.105;  -70.810
597.112;  610.450; -582.108; -437.805
597.388;  493.617;  -49.097;  -48.826
597.665;  174.976;  437.887;  530.203
597.941;  -34.608; -572.089; -658.839
598.217;   55.907; -323.110; -293.802
598.493;  418.794;   61.891; -204.804
598.769;  825.355; -175.100;  -50.819
599.045;  542.778; -490.108; -562.806
599.321;  121.385; -193.100; -261.820
599.597;  277.443; -355.109; -476.804
599.872;  728.844;  409.896;  429.187
600.148;  614.444;  -61.097; -172.826
600.424;  456.784;   91.893;  202.193
600.700;  413.437; -170.107; -280.807
600.976;  235.787; -442.097; -464.825
601.252;  430.239; -226.109; -272.803
601.527;  438.170; -833.104; -840.813
601.803;  274.236; -453.105; -404.812
602.079;  292.430; -124.100; -118.819
602.354;  913.194; -620.092; -531.835
602.630; 1335.298; -140.113; -482.796
602.906; 3541.274; -910.101; -863.818
603.181;10638.664; -627.119; -534.786
603.457; 8892.166;   98.903; -278.826
603.733; 1354.495; -605.120; -626.783
604.008; 1479.701; -245.106; -164.810
604.284; 4764.695; -636.101; -580.817
604.559; 4110.461;   -3.112;  -42.799
604.835;  782.754; -163.105; -225.810
605.110;  732.166; -732.099; -892.821
605.385; 1082.861;  224.907;  267.167
605.661; 1082.986; -625.095; -729.829
605.936; 1988.379; -664.108; -737.806
606.211; 1604.056;  -17.103; -170.815
606.487;  376.660; -329.114; -376.794
606.762;  108.039; -791.119; -745.786
607.037;   18.179; -501.105; -433.810
607.313;   -5.722; -589.096; -574.828
607.588;   28.725; -375.106; -137.810
607.863;   66.473;  -28.101; -143.818
608.138;  273.531;  513.890;  516.198
608.413;  105.921; -576.099; -592.822
608.688;  112.699; -203.108; -267.805
608.964;  377.793; -509.106; -218.809
609.239;  430.926; -107.105; -212.810
609.514;  376.660;  281.895;  240.188
609.789; 1040.016; -187.104; -716.812
610.064; 1363.552; -435.096; -609.827
610.339; 1464.515; -855.109; -799.804
610.614; 1965.786; -131.100; -315.820
610.889; 1086.286;  215.895;  107.188
611.163;  106.562; -407.104; -591.812
611.438;  154.836;   81.886; -167.794
611.713;   65.820; -467.101; -499.817
611.988;  115.372; -144.101; -328.818
612.263;   47.333; -771.102; -717.815
612.538;  300.472;  385.887;  251.204
612.812;  370.387; -832.100; -911.820
613.087;  269.102; -358.098; -338.823
613.362;  -12.888; -497.107; -557.807
613.637;   73.102;  261.897;  138.186
613.911;   23.495; -256.092; -345.835
614.186;  221.310; -249.107; -292.807
614.460; 1197.231; -842.081; -758.854
614.735; 1299.870;  -55.087;  -17.843
615.010;  285.258;   43.912;  -82.841
615.284;  365.474;  360.892;  246.195
615.559;  641.369; -792.092; -955.835
615.833;  449.094;  -76.099;  -87.822
616.108;   44.583; -225.090; -390.837
616.382;  221.572;  274.913;  402.156
616.656;  271.683; -241.090; -232.837
616.931;  821.619; -785.099; -700.822
617.205; 1702.521; -973.104; -979.813
617.480; 1546.523;  -91.125;    6.225
617.754;  310.245; -396.125; -128.774
618.028;   68.460; -369.129; -382.768
618.302;  112.397;   73.892;  -25.805
618.577;   -0.822; -371.103; -518.815
618.851;  -36.490; -399.109; -600.803
619.125;  -44.292; -335.134; -378.759
619.399;   -5.754; -244.104; -374.813
619.673;  -22.228; -330.115; -515.792
619.947;  -24.360; -333.114; -448.795
620.222;   -9.225; -198.110; -204.801
620.496;   33.792;  -47.121;  -96.782
620.770;   54.432; -187.122;  -93.781
621.044;  308.852;  323.895;  346.190
621.318; 1173.245; -653.120; -614.783
621.592; 1074.843; -430.121; -409.783
621.866;  670.212; -476.112; -572.799
622.140;   80.715; -207.116; -356.791
622.413;  100.917;  138.889;  112.200
622.687;   -2.255; -746.101; -492.817
622.961;   44.472; -130.108; -143.805
623.235;  -20.882; -633.111; -661.800
623.509;  -79.115; -816.105; -848.811
623.783;   33.182;  -12.107;   48.193
624.056;    9.822; -254.120; -280.783
624.330;   92.479;   63.888;   -3.797
624.604;  118.211; -271.116; -355.790
624.877;  111.705;  180.890;   26.198
625.151;  111.308; -249.114; -238.794
625.425;  -21.852; -150.103; -283.814
625.698;  -40.142; -367.119; -374.785
625.972;  -69.267; -799.110; -765.802
626.245;   96.163;  685.884;  484.210
626.519;  -30.324; -426.120; -340.784
626.792;   -7.513; -192.107; -380.807
627.066;  -71.851; -485.122; -662.779
627.339;  -83.972; -736.110; -663.802
627.613;   49.450;  351.880;  148.216
627.886;   84.560;  187.891; -612.803
628.160;   10.170;  312.880; -161.783
628.433;  -73.998; -695.125; -703.775
628.706;  -58.174; -517.120; -615.784
628.979;   36.059;  296.876;  117.223
629.253;  -45.237; -785.119; -833.786
629.526;  622.233; -334.126; -253.772
629.799;  652.918; -641.123; -479.778
630.072;  310.487; -497.128; -516.769
630.346;   15.013;-1115.116;-1080.790
630.619;  751.738; -467.107; -545.808
630.892;  977.418;  709.889;  593.200
631.165;  487.396;  790.896;  679.187
631.438;  -34.917;-1092.112;-1055.798
631.711;   73.146;  453.877;  257.221
631.984;  -24.292; -523.117; -624.789
632.257;  -28.796; -636.117; -681.789
632.530;  -39.717; -412.119; -433.785
632.803;   31.756; -109.115;    7.207
633.076;  -55.136; -360.123; -422.777
633.349;   23.142;  173.872;  121.231
633.622;   -9.943; -187.119; -240.785
633.895; -100.304; -903.120; -823.783
634.167;  -44.514; -496.126; -525.773
634.440;   14.321;  -19.116; -137.792
634.713;   16.787;  -22.119; -120.786
634.986;   99.855;  593.871;  453.233
635.258;  -52.796; -507.115; -597.793
635.531;   94.224;  742.882; -343.788
635.804;  -15.319; -303.117; -318.789
636.077;  -64.609; -830.116; -852.791
636.349;   44.627; -586.115; -474.793
636.622;  459.607; 1695.874; 1392.228
636.894;  429.352; -474.120; -909.784
637.167;  311.800; -836.127; -789.771
637.439;   63.121; -278.128; -213.770
637.712;  -41.841; -312.126; -293.772
637.984;  -66.658; -635.116; -707.791
638.257;  496.314;  515.877;  488.222
638.529;  877.403; -881.125; -924.776
638.802;  376.912; -508.128; -449.769
639.074;  -83.344; -927.122; -952.781
639.346;  -99.477; -942.135; -930.757
639.619;   10.721;  -79.142; -319.744
639.891;   -5.751;  -83.122; -168.779
640.163;  -75.399; -689.122; -756.780
640.435;   47.728;  273.878;  103.220
640.708;   26.455;  -72.122; -132.780
640.980;    5.207; -366.122; -362.781
641.252;  267.810;  -25.121;  -71.781
641.524; 2418.887;  580.879;  573.219
641.796; 2598.189;-1094.121; -907.782
642.068;  472.866; -191.121; -300.782
642.340;  -41.282; -486.121; -566.783
642.613;   50.345;  294.880;  323.217
642.885;  -94.852; -787.120; -878.783
643.157;  -16.775; -810.120; -658.784
643.428;   82.827;  170.880;  218.216
643.700;  -66.046; -498.120; -425.784
643.972;  -32.219;  -16.119; -133.785
644.244;  -89.217; -474.119; -559.785
644.516;  -47.064; -250.119; -114.786
644.788;   56.938;  662.881;  548.214
645.060;   -7.160;  -12.119; -124.786
645.332;  -86.983; -525.118; -535.787
645.603;   38.319;  479.882;  342.213
645.875;  -57.304; -334.118; -369.787
646.147;  144.574; 1487.882; 1242.212
646.418;   -8.599; -931.117; -918.788
646.690;  330.528; -714.117; -715.789
646.962;  113.955; -413.117; -451.789
647.233;   -5.443;   15.883;   11.211
647.505;  -93.766; -595.117; -475.790
647.776;   34.712;  328.884;  229.210
648.048;   27.164; -248.116; -418.790
648.320;  -33.684; -752.116; -679.791
648.591; -140.582;-1055.116; -958.791
648.862;  -85.480; -505.116; -577.792
649.134;   19.872;  115.885;  198.208
649.405;   -6.575; -661.115; -618.792
649.677;  -19.173; -475.115; -598.793
649.948;   28.604; -181.115; -296.793
650.219;   -3.469;  -37.115; -147.793
650.491;  -73.417; -431.114; -520.794
650.762; -112.965; -705.114; -731.794
651.033;  -80.587; -437.114; -424.795
651.304;  -57.085; -743.114; -728.795
651.576;  -44.158; -680.114; -645.795
651.847;  -26.906; -250.113; -140.796
652.118;  -18.279;  -32.113; -189.796
652.389; -108.527; -639.113; -722.796
652.660;  -26.749; -147.113;  -89.797
652.931; -129.022; -897.112; -871.797
653.202;  -73.720; -382.112; -541.798
653.473;  -44.443; -633.112; -533.798
653.744;  291.434; -595.112; -590.798
654.015;  274.161; -356.112; -303.799
654.286;  -46.086; -642.111; -663.799
654.557;  -15.334; -586.111; -521.799
654.828; -139.707;-1114.111;-1088.800
655.099;  -89.880; -404.111; -291.800
655.370;  -95.903; -427.111; -543.801
655.641; -115.026; -656.110; -714.801
655.911;  -99.773; -618.110; -638.801
656.182;   39.879;  437.890;  387.198
656.453;   87.456;  830.890;  746.198
656.724;  -70.592; -466.110; -426.802
656.994;  -69.165; -553.109; -568.803
657.265;  -99.238; -862.109; -873.803
657.536;  -66.435; -500.109; -377.804
657.806; -106.183; -561.109; -593.804
658.077; -130.031; -866.109; -950.804
658.347;  -79.629; -523.108; -598.805
658.618; -103.927; -646.108; -694.805
658.888;  -17.750;  -41.108;  112.195
659.159;  -69.672; -432.108; -548.806
659.429;    9.555; -292.108; -349.806
659.700;   66.982; -435.107; -390.807
659.970;   37.284; -370.107; -359.807
660.241;   89.236; -754.107; -921.807
660.511;  786.438; -147.107; -174.808
660.781;  214.316; -793.106; -748.808
661.052;  -31.432; -222.106; -381.808
661.322;  -21.530;   21.894;   -9.809
661.592;   18.247;  257.894;  148.191
661.862;  -65.751; -369.106; -382.810
662.133;  -87.699; -551.105; -502.810
662.403; -101.721; -770.105; -676.810
662.673;  -68.194; -256.105; -213.811
662.943;  -94.742; -612.105; -551.811
663.213;   18.285;  -85.105;  -81.811
663.483;  -60.588; -593.104; -568.812
663.753;  -34.686; -194.104; -152.812
664.023;   -5.733;   68.896;  -32.813
664.293;  -58.456; -319.104; -126.813
664.563; -116.229; -694.104; -648.813
664.833; -105.627; -743.103; -608.814
665.103; -121.875; -730.103; -793.814
665.373; -100.273; -766.103; -806.814
665.643;  -39.995; -863.103; -918.815
665.913;  105.107; -534.103; -714.815
666.182;  262.459; -685.102; -719.816
666.452;  447.561;  -22.102;  -89.816
666.722;   50.563; -724.102; -784.816
666.992; -111.410; -948.102; -921.817
667.261;  -78.882; -824.102; -808.817
667.531;  270.045;  134.899;   45.183
667.801;  827.172; -440.101; -412.818
668.070;  300.949;  714.899;  697.182
668.340;  -62.674; -883.101; -840.819
668.609;  118.328;  588.900;  301.181
668.879;  -64.394; -490.100; -558.819
669.149;  -62.267; -539.100; -516.820
669.418;  -84.590; -698.100; -726.820
669.688;   16.737; -482.100; -666.820
669.957;  170.489; -423.099; -546.821
670.226;    9.216; -268.099; -331.821
670.496;  -72.481; -431.099; -635.822
670.765;  -61.004; -418.099; -501.822
671.034; -127.002; -872.099; -828.822
671.304;   -6.950;   55.902; -111.823
671.573; -123.298;-1085.098; -957.823
671.842;  164.229; -380.098; -294.823
672.112;  109.107; -692.098; -586.824
672.381;   24.909; -239.098; -214.824
672.650; -113.464;-1005.097;-1021.825
672.919;  -64.812; -631.097; -507.825
673.188;  -74.560; -681.097; -878.825
673.457; -120.508;-1101.097;-1143.826
673.726;  -57.630; -579.096; -646.826
673.995;   -4.753; -533.096; -479.826
674.265;   24.824; -263.096; -333.827
674.534;   48.676; -183.096; -235.827
674.802;   62.503; -618.096; -703.828
675.071; 1494.930; -886.095; -801.828
675.340; 6230.933; -464.095; -339.828
675.609; 2063.410;  103.905;   82.171
675.878;  201.062; -949.095; -893.829
676.147;   68.539;  -26.095;   -8.829
676.416;  146.041; -210.094; -294.830
676.685; 1066.443; 1000.906; -622.830
676.953;  230.446; -603.094; -452.831
677.222;   -3.527; -193.094; -273.831
677.491;  -10.975;  -24.094; -127.831
677.759;    6.127;   11.907;  172.168
678.028;   17.279; -279.093; -222.832
678.297;    9.656;   71.907;  197.168
678.565; -127.766; -898.093; -944.833
678.834;  -50.614; -311.093; -268.833
679.102;  -74.437; -411.092; -391.834
679.371; -142.585; -898.092; -727.834
679.639; -114.783; -797.092; -786.834
679.908; -106.481; -794.092; -724.835
680.176; -144.978; -895.091; -941.835
680.445;  -61.026; -346.091; -352.835
680.713;  -23.149;  -58.091;  -23.836
680.982;  -77.922; -523.091; -525.836
681.250;  -97.195; -578.091; -507.837
681.518;  -80.118; -534.090; -751.837
681.787;   11.385; -204.090; -167.837
682.055;  -38.263; -490.090; -422.838
682.323; -138.511; -993.090; -992.838
682.591;   82.166; -216.090; -538.838
682.859;  156.268;    9.911;  -35.839
683.128;   39.270;  232.911;  497.161
683.396; -154.152;-1102.089;-1122.840
683.664;  -27.475; -241.089;   21.160
683.932;    4.477;  144.911;  -76.840
684.200;  -61.971; -576.088; -320.841
684.468;   -7.169;  -73.088; -124.841
684.736;  -17.542; -214.088; -175.841
685.004; -105.964;-1024.088; -982.842
685.272;   13.988; -880.088; -774.842
685.540;  -28.185; -499.087; -557.843
685.808;  -69.833; -651.087; -682.843
686.076;  -71.156; -894.087; -969.843
686.343;  -24.329; -601.087; -815.844
686.611;   85.124; -195.087; -224.844
686.879;  652.226; -530.086; -553.844
687.147; 4906.878; -483.086; -480.845
687.414; 1455.705;  -12.086; -169.845
687.682;   68.707; -658.086; -757.846
687.950;  468.709;  259.915;  263.154
688.217;  106.562; -792.085; -760.846
688.485;   42.814; -632.085; -636.847
688.753;  855.641;  -11.085; -102.847
689.020;  367.818; -820.085; -851.847
689.288;  -67.655; -853.084; -787.848
689.555;   -8.653; -195.084; -148.848
689.823;  -53.825; -241.084; -345.849
690.090;  -80.573; -546.084; -651.849
690.358; -131.471; -877.084; -897.849
690.625;   14.481;  120.917;   45.150
690.892;  -55.617; -403.083; -369.850
691.160;    0.360;   72.917;  -35.850
691.427;   -2.012;  141.917;  130.149
691.694; -106.410; -855.083; -929.851
691.962; -132.908;-1177.082;-1060.852
692.229;   19.019;  127.918;   56.148
692.496;  131.646;  130.918;  -49.852
692.763;   64.498; -164.082; -201.853
693.031;  -52.099; -739.082; -716.853
693.298;    1.753; -509.081; -368.853
693.565;  450.380; -155.081; -163.854
693.832; 2032.307;   -5.081;   -9.854
694.099;  292.659; -643.081; -642.855
694.366;  -10.014; -882.081; -896.855
694.633;  -14.361; -920.080; -633.855
694.900;  759.291; 4367.920; -114.856
695.167;  638.443; -214.080; -380.856
695.434;  188.045; -646.080; -623.856
695.701;  239.822;  121.921;  -61.857
695.968;  691.074; -365.079; -361.857
696.234; 1197.852; -415.079; -646.858
696.501;11986.804; -776.079; -614.858
696.768; 6503.831; -554.079; -617.858
697.035;  408.833; -632.078; -667.859
697.302;   82.185; -448.078; -552.859
697.568;   38.312; -458.078; -497.859
697.835;  -28.535; -683.078; -624.860
698.102;  -16.608; -498.078; -407.860
698.368;   71.644;  384.923;  396.139
698.635;   -9.679;  -47.077; -424.861
698.901;  -18.277; -240.077; -348.861
699.168;  149.375; -534.077; -456.862
699.435;  131.328;  -72.077;  -13.862
699.701;  -75.820; -868.076; -764.862
699.968;   18.907;  144.924; -441.863
700.234;  -99.816; -783.076; -822.863
700.500;  -37.014; -448.076; -539.864
700.767;   -3.887;   -1.075;   26.136
701.033; -107.034;-1015.075; -963.864
701.299;  -39.407; -450.075; -483.865
701.566;  113.795;  950.925;  763.135
701.832;   48.672;  -31.075;  -76.865
702.098;  -67.726;-1054.074;-1034.866
702.365;  -33.574;-1098.074;-1030.866
702.631;   41.179;-1038.074;-1063.867
702.897; 1802.031; -765.074; -676.867
703.163; 3232.708;  348.926;  254.133
703.429;  250.835; -256.073; -273.868
703.695;  -11.888; -796.073; -792.868
703.961;   51.214; -214.073; -210.868
704.227;  -20.133; -630.073; -725.869
704.493;  147.219;  613.927;  510.131
704.759;    5.271; -565.072; -540.870
705.025;   45.998; -203.072; -194.870
705.291;    4.950; -666.072; -562.870
705.557;  213.727;  719.928;   34.129
705.823;   62.680; -742.072; -694.871
706.089;  200.782; -307.071; -326.871
706.355;  417.459; -315.071; -244.872
706.620; 6002.586; -776.071; -729.872
706.886; 9649.588; -309.071; -362.873
707.152; 1026.990; -818.070; -973.873
707.418;   35.243;-1153.070;-1186.873
707.683;   35.995; -550.070; -530.874
707.949;  -38.303; -547.070; -578.874
708.215;   26.424; -129.070; -207.874
708.480;   14.226; -520.069; -420.875
708.746;  148.553;   68.931;   28.125
709.011;  -47.844; -578.069; -612.876
709.277;  -61.592; -538.069; -543.876
709.542;  -36.490; -428.069; -387.876
709.808;    9.362;  -59.068;   89.123
710.073;  -64.686; -577.068; -695.877
710.339;  -11.834; -242.068; -228.877
710.604;  143.544; -780.068; -845.878
710.869;  502.446; -277.068; -366.878
711.135;  -51.477; -715.067; -628.879
711.400;  -73.825; -507.067; -608.879
711.665;  -53.673; -404.067; -479.879
711.931;  -78.396; -661.067; -677.880
712.196; -104.868; -876.067; -954.880
712.461;  177.834; -402.066; -490.880
712.726;  288.061; -727.066; -771.881
712.991;  -71.837; -647.066; -664.881
713.256;  -36.385; -350.066; -332.882
713.521;  -51.658; -417.065; -381.882
713.787;  -52.580; -454.065; -472.882
714.052;    3.072; -214.065; -400.883
714.317;  -69.151;-1045.065; -981.883
714.581; 1165.351; -374.065; -268.883
714.846; 1847.253; -822.064; -888.884
715.111;  169.880;  261.936;  257.116
715.376;    0.633;  -86.064; -223.885
715.641;    8.360; -365.064; -367.885
715.906;  461.437;   15.936; -551.885
716.171;  196.114;  221.937;  209.114
716.436;   71.066;  -78.063; -104.886
716.700;  -91.407; -818.063; -692.886
716.965; -115.404; -794.063; -807.887
717.230;  -67.102; -339.063; -392.887
717.494;  -21.225;  -40.062; -134.888
717.759;  -79.448; -784.062; -640.888
718.024;   20.304;  269.938;  250.112
718.288;   73.481;  685.938;  395.111
718.553; -139.441; -803.062; -977.889
718.817; -130.239; -883.061; -899.889
719.082;  -20.112; -115.061; -125.890
719.346; -126.785;-1000.061; -947.890
719.611;  -56.583; -300.061; -255.891
719.875;  -70.856; -568.060; -537.891
720.140;  -34.328; -453.060; -603.891
720.404;   62.174; -136.060; -249.892
720.668; 1291.801; -475.060; -411.892
720.933;  536.078;  146.940;  137.108
721.197;  -76.345; -667.059; -600.893
721.461; -119.793; -851.059; -826.893
721.725;  -20.265;  -21.059; -250.894
721.990;  -51.663; -284.059; -204.894
722.254;  -13.761;  -26.059; -108.894
722.518;  -75.684; -286.058; -442.895
722.782;  -68.282; -743.058; -594.895
723.046;  170.645;  614.942;  570.105
723.310;   22.123;  374.942;  210.104
723.574;  -86.825; -654.058; -614.896
723.838;  -87.798; -576.057; -642.897
724.102;  -48.921; -226.057; -239.897
724.366; -119.394;-1032.057; -978.897
724.630;  -79.467; -749.057; -571.898
724.894;  -55.989; -722.057; -514.898
725.158;   -7.862;   38.944; -295.898
725.422;  -36.285; -394.056; -327.899
725.685;  -43.508; -441.056; -349.899
725.949;  -53.131; -566.056; -519.900
726.213;  -35.404; -732.056; -811.900
726.477;  316.624;-1020.055; -933.900
726.740;  244.501; -274.055; -104.901
727.004;  435.553; -384.055; -510.901
727.268; 4077.505; -442.055; -400.901
727.531; 1291.032; -961.055; -775.902
727.795;   -9.416; -713.054; -673.902
728.059;  -43.288; -552.054; -557.903
728.322;  -56.911; -841.054; -669.903
728.586;   76.166; -692.054; -701.903
728.849;  -54.232; -695.053; -756.904
729.112;  -95.555; -812.053; -912.904
729.376; -105.828; -959.053; -905.904
729.639;  -59.950; -536.053; -536.905
729.903; -103.873; -733.053; -699.905
730.166;  -33.271; -437.052; -399.906
730.429;  -12.544; -317.052; -468.906
730.693;  -46.467; -355.052; -894.906
730.956;  225.160;  810.948;  651.093
731.219; 1011.688; -310.052; -103.907
731.482;  246.515;-1003.051; -894.907
731.745;  242.092; -794.051; -935.908
732.009;   34.219;  -30.051;   50.092
732.272;  -77.904; -904.051; -771.909
732.535;  -15.927; -300.051; -310.909
732.798; -133.974;-1083.050;-1166.909
733.061;  -28.922; -430.050; -456.910
733.324;   20.005;   31.950; -180.910
733.587;   81.632;  290.950;  365.090
733.850;  -41.866; -973.049;-1050.911
734.113;   45.361;   33.951;   32.089
734.376;   43.964; -328.049; -447.912
734.639;  259.916; 1188.951; 1011.088
734.901;  124.293; -180.049; -402.912
735.164;  734.870; -883.048; -837.913
735.427; 2010.922; -166.048; -355.913
735.690;  206.749; -205.048; -234.913
735.952;   24.352; -923.048; -925.914
736.215;   40.929;-1113.048;-1009.914
736.478;  106.856; -771.047; -774.915
736.740;  308.458;   33.953;  129.085
737.003;  899.385; -658.047; -672.915
737.266; 6100.062;  -94.047;   46.084
737.528;  712.990; -682.047; -660.916
737.791;  418.667; -316.046; -327.916
738.053;  951.344;  465.954;  649.083
738.316;12781.771; -162.046; -136.917
738.578;10442.923; -770.046; -736.918
738.841;  620.425; -382.046; -446.918
739.103;  279.953; -875.045; -777.918
739.365;  721.705;   79.955;  -69.919
739.628;   59.432; -884.045; -805.919
739.890;   20.059; -758.045; -710.919
740.152;  -11.789; -692.044; -754.920
740.414;   38.688; -408.044; -359.920
740.677;  -10.334; -785.044; -634.921
740.939;  -11.782; -587.044; -487.921
741.201;  419.445; -432.044; -572.921
741.463;  131.672; -689.043; -745.922
741.725;   46.674;  -21.043; -199.922
741.987;   74.426;  220.957;  116.078
742.249;   92.604; -751.043; -859.923
742.511;  394.581; -703.043; -794.923
742.773;   91.858; -546.042; -546.924
743.035;  162.335;  796.958;  533.076
743.297;  -10.063; -963.042;-1013.924
743.559; 1059.164; -278.042; -262.925
743.821;  164.642; -735.042; -744.925
744.083;   36.669;  -44.041; -149.925
744.345;  -56.979; -869.041; -892.926
744.607;   62.223;   75.959;  122.074
744.868;  -28.550; -490.041; -554.927
745.130;  -73.023; -994.041;-1008.927
745.392;   86.780;   -1.040;  -44.927
745.653;    9.707; -411.040; -378.928
745.915;  174.334;  896.960;  631.072
746.177;   76.661;   35.960;  -43.928
746.438;   37.338; -428.040; -543.929
746.700;    0.115; -947.039; -988.929
746.961;   51.193; -659.039; -740.930
747.223;  200.770; -190.039;  -74.930
747.484;  168.747; -391.039; -471.930
747.746;  227.799;  -23.038; -106.931
748.007;  213.776; -647.038; -689.931
748.269;  444.278; -468.038; -440.931
748.530;  773.481; -852.038; -638.932
748.791;  409.958; -354.038; -420.932
749.053;  620.010;  286.963;  163.067
749.314;  674.937; -236.037; -169.933
749.575;  795.514; -945.037; -905.933
749.836; 1222.766; -217.037;   86.066
750.098; 3141.419;  -60.037;  -21.934
750.359;49736.371;  414.964;  555.066
750.620;14944.998; -121.036; -220.935
750.881; 1510.850; -585.036; -513.935
751.142; 1916.027; -950.036; -938.936
751.403;20952.654; -789.036; -705.936
751.664;11004.282;-1034.035; -999.936
751.925;  699.534; -175.035; -262.937
752.186;  410.311; -298.035; -278.937
752.447;  231.488; -590.035; -445.937
752.708;  123.715; -532.035; -648.938
752.969;   72.992; -566.034; -576.938
753.230;   38.370; -777.034; -672.939
753.491;   71.872; -650.034; -631.939
753.751;  107.349;  109.966;   19.061
754.012;  125.451;  258.967;  181.060
754.273;   94.378; -174.033;  -71.940
754.534;   56.055; -487.033; -580.940
754.794;  -46.367; -926.033; -911.941
755.055;  164.585; 1051.967;  881.059
755.316;   -5.888; -700.032; -566.942
755.576;    6.039; -606.032; -576.942
755.837;  -17.309; -527.032; -695.942
756.097;    0.943; -530.032; -564.943
756.358;  -33.404; -725.032; -770.943
756.618;   -9.677; -705.031; -641.943
756.879;   40.375; -254.031; -349.944
757.139;  -90.648;-1098.031;-1116.944
757.400;  -34.846; -538.031; -553.945
757.660;    6.106; -365.031; -401.945
757.920;   58.434; -266.030; -228.945
758.181;   -2.139; -468.030; -351.946
758.441;  -66.337; -870.030; -809.946
758.701;  -13.510; -308.030; -215.946
758.961;   -2.533; -220.030; -278.947
759.222;  -25.481; -574.029; -502.947
759.482;  -62.053; -683.029; -723.948
759.742;  -67.601; -706.029; -547.948
760.002;   23.201;  -83.029; -143.948
760.262;   38.028;   50.972;  182.051
760.522;  -19.320; -498.028; -574.949
760.782;  -51.368; -738.028; -612.949
761.042;  -29.240; -618.028; -573.950
761.302;   48.537;   55.972;  -18.950
761.562;   77.964; -164.027; -154.951
761.822;  149.966; -710.027; -551.951
762.082;   -4.982;-1104.027;-1093.951
762.342;   80.220; -328.027; -403.952
762.601;   98.848; -567.027; -506.952
762.861;  463.000; -281.026; -207.952
763.121;  413.952; -406.026; -411.953
763.381; 6792.529; -499.026; -485.953
763.640; 8983.106; -139.026; -307.954
763.900;  380.158; -242.026; -203.954
764.160;  103.136; -458.025; -491.954
764.419;    4.063; -726.025; -782.955
764.679;  -53.960; -795.025; -726.955
764.939;   -3.083; -124.025; -210.955
765.198;  -72.606; -608.025; -563.956
765.458;  -72.704; -710.024; -612.956
765.717;  -74.426; -454.024; -590.957
765.976;  -50.049; -428.024; -411.957
766.236;  -51.472; -475.024; -610.957
766.495;   16.805;  260.977;   73.042
766.755;  -39.468;-1090.023; -987.958
767.014;   65.784; -594.023; -665.958
767.273;  -47.463; -373.023; -397.959
767.533;  -40.511; -228.023; -307.959
767.792;  -17.409; -151.022; -188.960
768.051;  -47.857; -228.022; -276.960
768.310;  -74.305; -546.022; -650.960
768.569;   -0.278; -161.022;    4.039
768.828;  -13.050; -285.022; -363.961
769.088;  -79.523;-1050.021; -942.961
769.347;  -68.421; -755.021; -599.962
769.606;  -82.694; -876.021; -857.962
769.865; -115.117;-1016.021;-1033.963
770.124;    1.810; -411.021; -336.963
770.383;  -20.937; -778.020; -910.963
770.641;   24.190; -398.020; -400.964
770.900;  -53.283; -953.020; -846.964
771.159;  -19.881; -851.020; -951.964
771.418;   14.146; -917.020; -779.965
771.677;  159.773; -224.019; -293.965
771.936;  166.876; -794.019; -865.966
772.194; 2027.753; -465.019; -437.966
772.453;12671.330; -213.019; -391.966
772.712;  973.382;  416.982;  329.033
772.970;  148.234;   32.982;   63.033
773.229;  109.136;  -22.018;  102.033
773.488;  -74.486; -814.018; -770.968
773.746;   50.791;  296.982;  335.032
774.005;   21.468;  190.983;  -22.969
774.263;    7.620;  243.983;  177.031
774.522;  -43.028; -422.017; -548.969
774.780;  -71.626; -484.017; -417.970
775.039;  -94.673; -551.017; -531.970
775.297;  -22.046; -135.016; -351.970
775.555; -107.869; -489.016; -612.971
775.814; -121.917; -618.016; -570.971
776.072; -115.715; -749.016; -740.971
776.330;  -93.088; -630.016; -520.972
776.589; -108.710; -703.015; -721.972
776.847; -117.833; -645.015; -624.973
777.105; -160.306;-1016.015;-1032.973
777.363;  -88.129; -459.015; -454.973
777.621; -127.252; -660.015; -717.974
777.879;  -33.525;  -42.014;   32.026
778.138; -105.797; -554.014; -717.974
778.396; -102.420; -585.014; -526.975
778.654; -162.318;-1015.014; -970.975
778.912;  -70.966; -269.014; -371.976
779.170; -134.014; -880.013; -803.976
779.427; -129.762; -922.013; -897.976
779.685; -125.259; -880.013; -832.977
779.943;  -55.657; -654.013; -593.977
780.201; -145.205; -964.012; -883.978
780.459; -109.753; -651.012; -610.978
780.717;  -93.326; -440.012; -390.978
780.974; -104.174; -449.012; -490.979
781.232;  -75.171; -358.012; -338.979
781.490;  -55.744; -551.011; -472.979
781.747;  -88.042; -555.011; -476.980
782.005;    8.885;  462.989;  254.020
782.263; -155.313; -542.011;-1004.981
782.520;  -89.161; -326.011; -501.981
782.778; -162.483;-1013.010;-1051.981
783.035; -164.556; -962.010; -938.982
783.293;  -55.779; -248.010; -206.982
783.550;  -56.752; -134.010; -198.982
783.808; -121.975; -764.010; -776.983
784.065; -150.698; -745.009; -874.983
784.322;  -42.795;   25.991;  -86.984
784.580; -130.793; -915.009; -771.984
784.837;  -84.541; -392.009; -466.984
785.094; -117.914; -783.009; -762.985
785.352;  -52.687; -304.008; -404.985
785.609;  -57.360; -934.008; -839.985
785.866;  -68.482; -345.008; -401.986
786.123;  -30.255; -639.008; -583.986
786.380;  -73.653; -665.008; -604.987
786.637;  -43.526; -225.007; -380.987
786.895;   30.601; -456.007; -543.987
787.152;  -39.372; -135.007; -267.988
787.409;  -42.594; -123.007; -225.988
787.666;  -68.442; -299.006; -378.988
787.923; -100.740; -616.006; -695.989
788.179;  -82.363; -551.006; -584.989
788.436;  -96.436; -585.006; -585.990
788.693;  -19.384;  -92.006;  -87.990
788.950;  213.969; -125.005; -112.990
789.207;  446.546; -381.005; -372.991
789.464;  -43.827; -161.005; -301.991
789.720;  -18.550;  150.995;  110.009
789.977; -146.548;-1003.005; -671.992
790.234;  -25.246;   44.996;  -66.992
790.490; -140.643; -884.004;-1031.993
790.747;  -10.441;  -85.004;   22.007
791.004;    3.011; -426.004; -348.993
791.260;  -66.387; -430.004; -560.994
791.517;  -81.210; -843.003; -788.994
791.773;  -31.883; -379.003; -342.994
792.030;  -91.380; -596.003; -660.995
792.286;  -96.203; -686.003; -636.995
792.543;  -21.276;  -74.002; -159.995
792.799;  -35.174; -584.002; -382.996
793.055; -152.147;-1179.002;-1210.996
793.312;  -79.695; -827.002; -816.997
793.568;  -53.742; -746.002; -599.997
793.824;   19.785; -226.001; -284.997
794.081;   20.487; -447.001; -508.998
794.337;   85.914; -664.001; -561.998
794.593; 1158.266; -319.001; -271.999
794.849; 7470.793; -746.001; -772.999
795.105;  450.896; -270.000; -261.999
795.361;   35.198; -490.000; -457.000
795.617;  -28.200; -875.000; -945.000
795.873;  -49.300; -360.000; -407.000
796.129;  -25.000; -368.000; -306.000
796.385;  -15.125; -124.000; -156.000
796.641;   59.950;  412.000;  550.000
796.897;  -71.175; -666.000; -635.000
797.153;   64.475;  453.000;  357.000
797.409;  -90.325; -785.000; -868.000
797.665;  -63.500; -625.000; -732.000
797.921;  -70.925; -775.000; -762.000
798.176;  -52.800; -744.000; -747.000
798.432;  -27.475; -824.000; -596.000
798.688;  -50.850;-1174.000;-1078.000
798.943;   92.650; -165.000; -147.000
799.199;   13.775;-1005.000; -959.000
799.455;  271.450;  369.000;  316.000
799.710;  174.725; -813.000; -380.000
799.966;  356.225; -162.000; -160.000
800.221;  567.875; -638.000; -721.000
800.477;11017.075; -743.000; -710.000
800.732;12372.975; -773.000; -800.000
800.988;  758.650;  205.000;  -19.000
801.243; 1467.300; -454.000; -344.000
801.498; 7829.625; -814.000; -739.000
801.754;  529.600; -289.000; -163.000
802.009;  110.100; -257.000; -335.000
802.264;  -40.450; -967.000;-1033.000
802.520;   33.900;  222.000;   -3.000
802.775;  -36.350; -524.000; -359.000
803.030;   53.250;  395.000;  356.000
803.285; -109.675; -840.000; -903.000
803.540;  -40.575; -686.000; -699.000
803.795;  -13.275; -648.000; -583.000
804.051;  -33.050; -279.000; -346.000
804.306;   26.125;  168.000;  128.000
804.561;  187.525;  451.000;  362.000
804.816;  148.900;  714.000;  861.000
805.071;   12.375; -185.000; -280.000
805.325;  353.675; -257.000; -427.000
805.580;  -64.225; -841.000; -877.000
805.835;   -1.475; -204.000; -297.000
806.090;  -52.025; -760.000; -676.000
806.345;   -6.350; -344.000; -264.000
806.600;  -16.950; -549.000; -632.000
806.854;  -14.275; -408.000; -538.000
807.109;  -13.525; -493.000; -577.000
807.364;   24.650; -407.000; -328.000
807.618;    9.725; -415.000; -381.000
807.873;  104.175; -470.000; -494.000
808.128;  141.625; -257.000; -518.000
808.382;  148.500; -224.000; -332.000
808.637;  112.125; -440.000; -511.000
808.891;  219.975; -257.000; -180.000
809.146;  147.200; -902.000; -794.000
809.400;  343.575; -848.000; -923.000
809.654;  425.150; -779.000; -551.000
809.909;  591.850; -841.000; -927.000
810.163; 7195.925; -813.000; -651.000
810.418;23786.750; -940.000; -861.000
810.672; 1431.725; -685.000; -690.000
810.926;  736.350; -993.000; -973.000
811.180; 1236.400; -439.000; -372.000
811.434;26815.900;  240.000;  135.000
811.689;13906.775; -231.000; -365.000
811.943;  723.625; -936.000; -953.000
812.197;  322.800; -893.000; -671.000
812.451;  135.500; -379.000; -514.000
812.705;   -8.550; -809.000; -619.000
812.959;    2.500; -263.000; -388.000
813.213;    4.825; -283.000; -209.000
813.467;   66.200;  470.000;  253.000
813.721;  -92.250; -764.000; -792.000
813.975; -100.675; -826.000; -877.000
814.229;   51.475;  430.000;  353.000
814.482;  -61.800; -517.000; -566.000
814.736;  -95.775; -766.000; -744.000
814.990; -124.000; -779.000; -872.000
815.244;  -40.300; -228.000; -285.000
815.497;  -91.100; -636.000; -601.000
815.751;   -4.975; -141.000;   82.000
816.005;  -91.400; -470.000; -586.000
816.258;  -50.650; -510.000; -363.000
816.512;  -99.375; -693.000; -610.000
816.766;    7.175;  121.000;  157.000
817.019;   19.325;  148.000;  149.000
817.273;  -94.350;-1000.000; -802.000
817.526;  -31.325; -206.000; -173.000
817.779;   11.025;-1049.000; -960.000
818.033;  -14.875; -693.000; -807.000
818.286; -114.900; -725.000; -792.000
818.540;  -86.950; -403.000; -403.000
818.793;  -77.350; -402.000; -489.000
819.046;  -96.300; -582.000; -520.000
819.299;  -40.025; -157.000; -166.000
819.553; -119.500; -552.000; -592.000
819.806; -149.550;-1016.000; -838.000
820.059;  -62.150; -334.000; -354.000
820.312;   22.125;  152.000;  185.000
820.565;   -5.675;  110.000;  -27.000
820.818;  -46.725;  -59.000; -173.000
821.071; -167.975;-1041.000; -957.000
821.324;  -88.700; -536.000; -540.000
821.577;  -97.500; -457.000; -483.000
821.830;  -65.225; -270.000; -172.000
822.083; -126.300; -733.000; -288.000
822.336;  -39.900; -261.000; -167.000
822.589; -135.475; -805.000; -688.000
822.842; -129.200; -875.000; -770.000
823.094; -161.400;-1076.000;-1114.000
823.347; -125.175; -925.000; -729.000
823.600;   19.375;  402.000;  187.000
823.853;  -33.550; -311.000; -267.000
824.105;  -52.375; -331.000; -575.000
824.358;  -94.700; -617.000; -716.000
824.611;   48.800;  234.000;   40.000
824.863;  -21.350; -612.000; -591.000
825.116;   67.050;  -33.000;   27.000
825.368;  146.475; -366.000; -372.000
825.621;  247.825; -186.000; -240.000
825.873;  150.650; -704.000; -737.000
826.126;  671.275; -669.000; -641.000
826.378;13856.350; -389.000; -505.000
826.630; 4542.400; -890.000; -898.000
826.883;  120.300; -754.000; -693.000
827.135;   89.175; -279.000; -270.000
827.387;  -90.425; -893.000; -839.000
827.639;  -15.350;  -86.000;   32.000
827.892; -116.575; -742.000; -582.000
828.144; -147.900; -848.000; -804.000
828.396;  -27.825;  104.000;  -80.000
828.648;  -85.900; -440.000; -333.000
828.900; -137.825; -702.000; -795.000
829.152; -102.025; -684.000; -683.000
829.404;  -65.675; -215.000; -267.000
829.656;   -6.700;  321.000;  214.000
829.908;  -17.000;  393.000;  229.000
830.160; -154.300;-1064.000;-1047.000
830.412;  -73.450; -481.000; -430.000
830.664; -114.350; -557.000; -665.000
830.916;  -74.350; -268.000; -206.000
831.167; -167.225;-1073.000; -951.000
831.419; -112.325; -623.000; -566.000
831.671; -131.700; -764.000; -809.000
831.923;  -80.050; -311.000; -447.000
832.174;  -74.450; -273.000; -331.000
832.426; -103.450; -493.000; -582.000
832.678; -171.425;-1043.000;-1091.000
832.929; -157.300; -947.000; -935.000
833.181;  -24.450; -575.000; -677.000
833.432;  -40.875;  -59.000; -186.000
833.684;  -33.225;  112.000;  -27.000
833.935; -111.550; -610.000; -566.000
834.187; -124.475; -829.000; -823.000
834.438;  -48.900;  -58.000;  -25.000
834.689;  -54.750; -255.000; -123.000
834.941;  -58.050; -343.000; -244.000
835.192;  -86.875; -590.000; -533.000
835.443;  -81.100; -419.000; -506.000
835.695;   -8.325;  138.000;  -16.000
835.946;  -90.225; -608.000; -378.000
836.197; -105.600; -599.000; -622.000
836.448;  -79.775; -528.000; -395.000
836.699;  -44.725; -253.000; -341.000
836.950;  -11.800;   72.000;    7.000
837.201; -138.300;-1003.000; -987.000
837.452;  -38.300; -356.000; -170.000
837.703;  -96.325; -791.000; -737.000
837.954;  -26.275; -205.000; -365.000
838.205;  -49.225;-1029.000;-1008.000
838.456;  264.475; -196.000; -282.000
838.707;   56.800; -423.000; -519.000
838.958;   47.425; -634.000; -647.000
839.209;  402.025;   18.000;   40.000
839.460;  178.375; -439.000; -201.000
839.710;  233.350; -135.000; -297.000
839.961;  530.450;  730.000;  612.000
840.212;  445.750; -382.000; -497.000
840.462; 1307.550; -328.000; -277.000
840.713;20759.125; -571.000; -536.000
840.964;10904.775;  -62.000; -143.000
841.214;  741.225; -384.000; -624.000
841.465;  763.575; -214.000; -141.000
841.715;  716.500; -417.000; -380.000
841.966;  885.425; -746.000; -685.000
842.216; 9685.450; -330.000; -431.000
842.466;46601.225; -169.000; -313.000
842.717; 3517.875; -964.000; -952.000
842.967;  473.800; -635.000; -641.000
843.217;  396.275;   20.000;   28.000
843.468;  110.450; -104.000; -132.000
843.718;    3.675; -718.000; -726.000
843.968;  -62.325; -837.000; -765.000
844.218;   58.075; -315.000; -262.000
844.469;   -1.825; -577.000; -561.000
844.719;  -88.200; -537.000; -682.000
844.969;  -87.550; -550.000; -580.000
845.219; -126.925; -814.000; -862.000
845.469;  -77.950; -392.000; -342.000
845.719; -146.025; -792.000; -884.000
845.969;   -5.125;  119.000;  174.000
846.219; -101.375; -738.000; -720.000
846.469;   19.350;  464.000;  432.000
846.718;  -41.375; -115.000;   31.000
846.968; -119.825; -827.000; -827.000
847.218;  -38.575; -224.000; -371.000
847.468;    2.275; -586.000; -555.000
847.718; -134.925; -827.000; -798.000
847.967; -121.350; -826.000; -915.000
848.217;  -84.450; -449.000; -569.000
848.467;  -57.225; -405.000; -376.000
848.716; -102.650; -708.000; -725.000
848.966;   43.650; -372.000; -358.000
849.215;  -34.125; -428.000; -419.000
849.465;  -66.375; -785.000; -615.000
849.714; -113.375;-1132.000;-1150.000
849.964;  -39.225; -551.000; -613.000
850.213;   -7.825; -393.000; -355.000
850.463;  106.900;  137.000;  340.000
850.712;   42.850; -542.000; -567.000
850.961;   64.575; -739.000; -678.000
851.211;  149.925; -513.000; -504.000
851.460;  243.325; -635.000; -650.000
851.709;  686.125;  -25.000;   18.000
851.958;11445.000; -912.000; -750.000
852.208;18158.200; -859.000; -879.000
852.457;  766.275; -181.000;  -13.000
852.706;  127.625; -791.000; -823.000
852.955;   68.775; -507.000; -528.000
853.204;  -53.600; -521.000; -461.000
853.453;  -65.800; -418.000; -458.000
853.702; -134.125; -660.000; -750.000
853.951;  -93.325; -532.000; -520.000
854.200; -113.650; -613.000; -562.000
854.449; -120.025; -695.000; -661.000
854.698;  -94.100; -340.000; -279.000
854.946;  -55.550; -181.000; -284.000
855.195; -137.425; -843.000; -868.000
855.444;  -94.325; -395.000; -420.000
855.693; -119.050; -345.000; -432.000
855.941; -106.850; -387.000; -516.000
856.190;  -41.125; -256.000; -382.000
856.439; -113.325; -652.000; -703.000
856.687;  -64.875;  -99.000;  -72.000
856.936; -131.900; -621.000; -323.000
857.184; -179.100;-1067.000;-1020.000
857.433; -110.200; -423.000; -512.000
857.681; -150.925; -989.000; -953.000
857.930;  -69.275; -282.000; -433.000
858.178; -157.825; -856.000; -929.000
858.427; -153.350; -802.000; -781.000
858.675; -119.475; -377.000; -544.000
858.923;  -94.600; -527.000; -819.000
859.172; -179.250;-1094.000;-1070.000
859.420;  -77.950; -339.000; -239.000
859.668; -132.700; -624.000; -628.000
859.916;  -17.325;  109.000;  115.000
860.164;  -93.775; -699.000; -603.000
860.413;  460.575; -878.000; -696.000
860.661;  492.950; -709.000; -577.000
860.909;  -70.350; -339.000; -325.000
861.157;  -72.250; -277.000; -444.000
861.405; -124.900; -534.000; -670.000
861.653;   20.200;  310.000;  310.000
861.901;  274.550; -543.000; -613.000
862.149;  119.675; -801.000; -824.000
862.396;  -77.200; -297.000; -187.000
862.644; -101.125; -368.000; -347.000
862.892;  -24.000;   98.000;  138.000
863.140; -116.425; -549.000; -530.000
863.388; -158.700; -815.000; -759.000
863.635; -135.025; -642.000; -601.000
863.883;   -9.700;  231.000;  190.000
864.131; -100.050; -288.000; -357.000
864.378; -124.150; -675.000; -540.000
864.626; -106.350; -347.000; -415.000
864.873; -115.400; -556.000; -505.000
865.121; -135.850; -714.000; -799.000
865.368;  -58.400; -173.000;   75.000
865.616;  -44.375;  -33.000;  -40.000
865.863;  -71.650; -462.000; -506.000
866.111;  -96.925; -795.000; -824.000
866.358;   31.950; -426.000; -420.000
866.605; 2120.075;  -64.000; -804.000
866.853; 2842.775; -621.000; -537.000
867.100;    5.700; -728.000; -775.000
867.347; -100.125; -672.000; -611.000
867.594;  -66.325; -740.000; -714.000
867.841;  142.525;   97.000;   17.000
868.089; -138.125; -746.000; -698.000
868.336; -116.700; -477.000; -420.000
868.583; -136.275; -637.000; -741.000
868.830;  -50.150; -131.000; -170.000
869.077; -165.825; -859.000; -787.000
869.324; -132.300; -502.000; -458.000
869.571; -122.850; -398.000; -430.000
869.818; -123.650; -485.000; -439.000
870.065;  -79.850; -439.000; -513.000
870.311; -113.075; -456.000; -542.000
870.558;  -97.750; -332.000; -311.000
870.805;  -85.925; -320.000; -384.000
871.052; -101.475; -494.000; -369.000
871.298;  -30.025; -204.000; -131.000
871.545;  -73.125; -151.000; -185.000
871.792;  -89.100; -173.000; -222.000
872.038;  -78.675;   43.000; -126.000
872.285; -121.975; -496.000; -387.000
872.532;  -89.600; -357.000; -387.000
872.778;    5.825;  556.000;  403.000
873.025;  -96.250; -384.000; -359.000
873.271;    4.800;  501.000;  578.000
873.517;  -17.350; -133.000; -209.000
873.764;  -14.000; -193.000;  -80.000
874.010;  -63.050; -143.000; -230.000
874.257;  -48.850;  123.000;   90.000
874.503; -117.075; -579.000; -479.000
874.749;  -71.850;   31.000;  275.000
874.995;  -61.650;  -80.000;  -20.000
875.242; -116.900; -540.000; -478.000
875.488; -112.400; -414.000; -439.000
875.734;  -57.050; -106.000; -234.000
875.980;  303.350; -872.000;-1032.000
876.226;  687.450; -157.000; -255.000
876.472;    0.050;  343.000;  237.000
876.718;  -32.050;  184.000;  158.000
876.964;  -32.500;   56.000;   55.000
877.210; -150.350; -547.000; -677.000
877.456; -142.200; -630.000; -557.000
877.702; -175.625; -821.000; -832.000
877.948; -116.300; -377.000; -497.000
878.193;    4.525;  361.000;  255.000
878.439;  -73.775; -487.000; -472.000
878.685; -100.675; -272.000; -343.000
878.931; -148.275; -618.000; -676.000
879.176; -104.625; -201.000; -201.000
879.422; -167.700; -933.000; -820.000
879.668;   41.775;   10.000;   79.000
879.913;  245.275;   53.000;  137.000
880.159;  -51.575; -112.000;  -17.000
880.404;  -65.100; -152.000; -162.000
880.650;  -32.200;   91.000;  141.000
880.895; -159.850; -670.000; -710.000
881.141; -121.925; -454.000; -428.000
881.386; -145.600; -503.000; -658.000
881.631;  -81.475; -311.000; -166.000
881.877;  -35.500;  112.000;  -13.000
882.122; -144.025; -684.000; -600.000
882.367;  -84.150; -136.000; -186.000
882.612;  -81.125;  -80.000; -176.000
882.858; -162.800; -877.000; -823.000
883.103; -103.650; -297.000; -267.000
883.348; -149.700; -759.000; -852.000
883.593; -153.100; -677.000; -602.000
883.838;  -54.800; -311.000;  -24.000
884.083;   58.850;  353.000;  288.000
884.328;  -92.450; -564.000; -545.000
884.573;  -43.725; -196.000; -143.000
884.818;  314.475; -694.000; -531.000
885.063;  404.425; -348.000; -315.000
885.308;  -99.950; -475.000; -398.000
885.553;  -21.850;  245.000;  325.000
885.797; -134.475; -545.000; -615.000
886.042;  -70.000;    8.000;   58.000
886.287;  -92.675; -253.000; -211.000
886.532;  -52.350;   26.000;  204.000
886.776; -109.050; -407.000; -525.000
887.021; -154.250; -621.000; -574.000
887.265; -152.425; -685.000; -689.000
887.510; -142.150; -557.000; -496.000
887.755; -103.075; -194.000; -164.000
887.999; -123.300; -552.000; -575.000
888.244;  -71.725;  -58.000;  161.000
888.488;  -22.225;  371.000;  393.000
888.732; -128.325; -368.000; -520.000
888.977; -142.075; -622.000; -567.000
889.221; -151.100; -683.000; -659.000
889.465; -111.525; -422.000; -566.000
889.710;  -75.150;  -56.000; -299.000
889.954;  -22.850;  579.000;  467.000
890.198; -142.775; -584.000; -707.000
890.442; -160.550; -716.000; -712.000
890.687; -174.825; -800.000; -753.000
890.931;  -77.400; -273.000; -210.000
891.175; -129.250; -502.000; -500.000
891.419;  -64.025; -105.000; -110.000
891.663;  -90.425; -239.000; -112.000
891.907; -158.900; -801.000; -545.000
892.151; -166.400; -920.000; -815.000
892.395; -102.450; -274.000; -387.000
892.638;  -30.025;  408.000;  291.000
892.882; -177.575; -780.000; -867.000
893.126;    4.175;  758.000;  558.000
893.370;  -74.100; -167.000; -168.000
893.614; -156.275; -714.000; -715.000
893.857; -111.975; -183.000; -197.000
894.101; -133.125; -527.000; -631.000
894.345;  -53.625;  300.000;  150.000
894.588;    3.775;  569.000;  380.000
894.832;  -84.275; -178.000;  -84.000
895.075;  -86.025;   15.000;  -92.000
895.319; -134.325; -552.000; -420.000
895.563; -113.650; -413.000; -353.000
895.806; -156.225; -628.000; -741.000
896.049;  -43.675; -576.000; -368.000
896.293;  151.050;  527.000;  405.000
896.536;  -20.550; -465.000; -468.000
896.779;  -40.475; -149.000;   -1.000
897.023; -139.975; -751.000; -714.000
897.266;  -43.675;  325.000;  269.000
897.509; -177.975; -900.000; -901.000
897.752;  -49.450;  149.000;  171.000
897.996; -185.375; -972.000; -864.000
898.239;  -41.300;  168.000;  102.000
898.482; -120.525; -431.000; -453.000
898.725;  -27.800;  101.000;   53.000
898.968; -142.900; -609.000; -744.000
899.211; -105.525; -513.000; -361.000
899.454; -109.825; -633.000; -539.000
899.697;  -52.875;   90.000;  -43.000
899.940; -156.350; -761.000; -757.000
900.182;  -98.425; -335.000; -405.000
900.425;  -93.900; -150.000; -298.000
900.668;  -26.975;  491.000;  350.000
900.911; -121.325; -292.000; -345.000
901.154;  -64.125;  141.000;   -3.000
901.396; -133.150; -407.000; -412.000
901.639; -137.575; -430.000; -496.000
901.882; -175.625; -790.000; -809.000
902.124;  -83.275;  -29.000; -143.000
902.367; -128.675; -315.000; -361.000
902.609; -134.350; -476.000; -453.000
902.852;  -94.100; -108.000; -260.000
903.094; -119.200; -458.000; -337.000
903.337;  -62.600;  -26.000;   53.000
903.579; -121.300; -228.000; -441.000
903.821; -168.675; -597.000; -744.000
904.064;  -62.150;   85.000;  127.000
904.306;  -79.100; -126.000; -166.000
904.548; -101.775; -152.000; -366.000
904.790;  -96.775; -195.000; -340.000
905.033; -126.050; -625.000; -577.000
905.275; -122.375; -513.000; -524.000
905.517;   63.475;  468.000;  256.000
905.759;   -6.125; -667.000; -761.000
906.001;  -83.350; -322.000; -369.000
906.243;  -41.800; -162.000; -224.000
906.485;  195.150; -265.000; -207.000
906.727;  263.675; -499.000; -542.000
906.969;   -4.175;  -30.000; -135.000
907.211;  205.050; -316.000; -382.000
907.453;  464.500; -188.000; -237.000
907.695;   93.350; -158.000; -385.000
907.936;   36.450;  818.000;  706.000
908.178;  -59.575;   92.000; -135.000
908.420;  -74.700; -111.000; -162.000
908.662; -141.150; -633.000; -682.000
908.903;  -88.175; -208.000; -123.000
909.145;  -62.375; -240.000; -305.000
909.386;   -3.625;  315.000;  280.000
909.628;   37.300;  363.000;  397.000
909.870;   10.825;   29.000;  264.000
910.111;  -85.875; -809.000; -949.000
910.353;   10.725; -123.000; -161.000
910.594;   -0.850; -574.000; -606.000
910.835;   95.375; -265.000; -326.000
911.077;  164.375; -503.000; -604.000
911.318;  307.900; -505.000; -471.000
911.559;  489.925; -577.000; -880.000
911.801; 1289.150; -284.000; -280.000
912.042; 9381.925;  -50.000; -159.000
912.283;28748.650;  404.000;  371.000
912.524; 5619.750; -396.000; -457.000
912.765;  579.600; -193.000;   79.000
913.006;  267.925; -307.000; -338.000
913.247;   71.925; -270.000; -290.000
913.488;    4.575;  -43.000;   30.000
913.729;  -86.525; -373.000; -373.000
913.970;  -46.100;  -96.000; -292.000
914.211;  -67.025; -160.000; -198.000
914.452;  -63.425; -118.000;  -11.000
914.693;   15.650;  510.000;  592.000
914.934;   11.825;  510.000;  440.000
915.175;  -68.125;   53.000;  -95.000
915.415;  -82.700; -137.000;   27.000
915.656;  -62.650;  -28.000;  192.000
915.897;  -96.275; -252.000;  -82.000
916.137;  -73.675;   74.000;   -9.000
916.378; -123.400; -573.000; -517.000
916.619;  -81.325; -159.000;  -63.000
916.859;  -21.950;  303.000;  330.000
917.100;  120.600; 1655.000; 1070.000
917.340;   46.025;  930.000;  728.000
917.581;   32.600;  965.000;  789.000
917.821;   -3.900; -171.000;  143.000
918.061;   83.350; -199.000;  -72.000
918.302;  -58.475; -152.000; -211.000
918.542;   -9.150;  -22.000;    3.000
918.782;   54.975;  369.000;  377.000
919.023;  162.675;  360.000;  427.000
919.263; 1881.425; 8131.000;  202.000
919.503; 1674.575; -137.000;  -54.000
919.743;  933.950;  390.000;  266.000
919.983;  472.375; -134.000;  -26.000
920.223;  126.600;  135.000;   14.000
920.463;  184.325;  631.000;  554.000
920.703;  171.750;   84.000;   39.000
920.943;  195.300; -110.000;   90.000
921.183;  273.700; -414.000; -405.000
921.423;  582.550;  307.000;  546.000
921.663;  840.650; -174.000; -257.000
921.903; 1760.825;  237.000;  173.000
922.143; 9064.675;  372.000;  389.000
922.383;37798.475;  158.000;  115.000
922.622;16293.600; -120.000;  -15.000
922.862; 1669.675;  796.000;  785.000
923.102;  590.250;  -51.000;   33.000
923.341;  266.500;   59.000;   74.000
923.581;  120.075;  450.000;  360.000
923.821;   34.425;  301.000;  398.000
924.060;   18.025;  351.000;  193.000
924.300;  -48.725;  -16.000; -128.000
924.539;  -10.925;  584.000;  473.000
924.779;   18.025;  812.000;  597.000
925.018;  -55.075;  247.000;  353.000
925.257;   -3.725;  595.000;  666.000
925.497;  -44.625;  447.000;  412.000
925.736;  -71.100;  -35.000;  102.000
925.975;    1.675;  687.000;  669.000
926.214;   18.325;  907.000;  850.000
926.454;    3.575;  706.000;  757.000
926.693;  -35.175;  419.000;  543.000
926.932;   30.000; 1021.000;  825.000
927.171;   65.750; 1107.000; 1044.000
927.410;   50.225; 1144.000;  967.000
927.649;   10.300;  924.000;  742.000
927.888;   -3.575;  590.000;  564.000
928.127;   -4.125;  680.000;  678.000
928.366;   42.025;  842.000;  826.000
928.605;   54.525;  831.000;  737.000
928.844;  270.000; 1451.000; 1393.000
929.083;  805.700;  770.000;  613.000
929.321;  490.275; 1335.000; 1359.000
929.560;  113.425; 1158.000; 1122.000
929.799;  -27.950;  574.000;  475.000
930.038;   78.375; 1025.000; 1394.000
930.276;  -26.250;  334.000;  397.000
930.515;   13.725;  827.000;  681.000
930.753;  -17.300;  614.000;  589.000
930.992;  -23.400;  664.000;  717.000
931.230;   -6.150;  847.000;  847.000
931.469;  171.225; 2162.000;  892.000
931.707;   67.125;  840.000;  751.000
931.946;   66.775; 1278.000; 1344.000
932.184;   73.225; 1437.000; 1175.000
932.423;   52.950; 1265.000;  963.000
932.661;   96.650; 1296.000; 1428.000
932.899;   31.575;  987.000;  821.000
933.137;   32.675;  754.000;  564.000
933.376;  162.425; 1664.000; 1335.000
933.614;  178.125; 1759.000; 1196.000
933.852;   54.275; 1357.000; 1171.000
934.090;  138.475; 1722.000; 1747.000
934.328;  110.900; 1252.000; 1457.000
934.566;  100.150; 1431.000; 1110.000
934.804;  154.200; 1263.000; 1309.000
935.042;  460.900; 1861.000; 1850.000
935.280; 1858.625; 2088.000; 2063.000
935.518; 2104.775; 2113.000; 2007.000
935.756;  437.400; 2481.000; 2316.000
935.994;  189.125; 1808.000; 1751.000
936.231;  393.975; 2890.000; 2950.000
936.469;  208.075; 2367.000; 2378.000
936.707;  159.050; 2220.000; 2167.000
936.945;  246.225; 2825.000; 2882.000
937.182;  203.150; 2679.000; 2741.000
937.420;  323.650; 3602.000; 3031.000
937.657;  473.250; 3365.000; 3478.000
937.895;  380.325; 3331.000; 3488.000
938.133;  318.875; 3540.000; 3528.000
938.370;  347.575; 3896.000; 4191.000
938.607;  391.400; 4488.000; 4205.000
938.845;  536.600; 5587.000; 5549.000
939.082;  473.425; 5387.000; 5177.000
939.320;  534.050; 5799.000; 5728.000
939.557;  632.150; 6549.000; 6491.000
939.794;  725.225; 7285.000; 7097.000
940.031;  937.200; 8421.000; 8368.000
940.269; 1181.050; 9552.000; 9107.000
940.506; 1151.850;10901.000;10507.000

