
Integration time [ms]: 100.000
Averaging Nr. [scans]: 40
Smoothing Nr. [pixels]: 0
Data measured with spectrometer [name]: 2101013U2
Wave   ;Sample   ;Dark     ;Reference
[nm]   ;[counts] ;[counts] ;[counts] 

394.013;   60.038; -450.257; -315.536
394.305;  164.935; -461.258; -419.536
394.596; 1635.858; -676.269; -527.514
394.887; 4209.928; -796.268; -654.518
395.178; 1537.791;  145.736;   11.476
395.470;   91.705; -210.263; -356.526
395.761;  141.322;  305.734;  394.479
396.052;  109.153; -545.284; -306.489
396.343;   92.939; -557.276; -454.503
396.634;   37.851; -200.279; -290.497
396.926;   24.075; -618.268; -565.517
397.217;   69.870;   11.725;  -17.504
397.508;   35.714; -366.273; -154.507
397.799;   31.376; -555.279; -571.497
398.090;   11.344; -973.280; -902.495
398.381;   84.785;   11.708;  -11.473
398.672;   -1.663; -585.292; -742.473
398.963;   27.233; -348.279; -373.498
399.254;   85.173;   54.709; -209.475
399.545;  -15.458;-1017.266; -883.520
399.836;   48.301; -407.277; -343.501
400.127;   36.606; -205.295; -209.468
400.418;   32.958; -423.274; -392.506
400.709;   31.028; -359.281; -333.493
401.000;   49.278; -268.291; -309.476
401.290;  106.352;  225.698;  115.545
401.581;   91.382; -166.286; -228.485
401.872;   42.721; -542.298; -486.462
402.163;   61.022; -313.296; -252.467
402.454;  100.199; -123.291; -163.475
402.744;   55.961; -844.297; -813.465
403.035;  257.774; -226.293;  -86.471
403.326;  310.390; -366.292; -384.474
403.617;  323.364;  204.701;  165.539
403.907;  374.985; -593.283; -679.490
404.198; 3669.121; -545.307; -599.446
404.489; 9327.666; -618.283; -588.491
404.779; 2604.632; -618.302; -660.456
405.070;  292.955;  -67.304; -174.451
405.360;  506.077; -259.293; -238.472
405.651;  499.271;  125.699;   98.542
405.942;  172.801;  209.714;  127.516
406.232;  105.419; -432.285; -413.487
406.523;  245.918;  641.706;  758.530
406.813;   65.253; -579.286; -644.484
407.104;  218.234;  261.708;  144.527
407.394;   83.341; -604.299; -591.462
407.685;  145.343;  336.715;  222.513
407.975;   69.939; -400.283; -382.490
408.265;  109.616; -134.289; -190.478
408.556;   73.745; -472.291; -459.475
408.846;  175.969;  474.706;  429.530
409.137;  130.852;   -1.288; -216.480
409.427;   83.418; -193.285; -271.487
409.717;   69.793; -776.273; -692.508
410.007;  148.610;    4.715; -170.486
410.298;  131.509; -360.295; -342.469
410.588;  107.140; -495.285; -510.486
410.878;   55.916; -792.287; -873.482
411.168;  125.799; -481.298; -478.463
411.459;  157.583; -295.283; -242.489
411.749;  100.293; -609.292; -507.474
412.039;   90.500; -755.289; -386.480
412.329;  238.967;   40.722;  132.501
412.619;  223.904;  -62.286; -148.485
412.909;  374.620;  639.711;  594.521
413.199;  339.769; -130.280; -251.495
413.490;  397.333;  521.710;  352.523
413.780;  227.299;-1013.279; -913.496
414.070;  410.665;  -46.276;  235.497
414.360;  432.787; -729.278; -666.498
414.650;  570.036; -726.288; -688.482
414.940;  780.198; -538.280; -441.496
415.230; 1248.357;   50.712;   74.519
415.520; 8762.757;  155.730;   66.486
415.809;35448.427; -305.281; -125.493
416.099;26651.654; -388.277; -229.501
416.389; 7951.230;  435.726;  236.494
416.679; 4541.559;   91.738;   85.473
416.969;  808.696; -527.287; -503.483
417.259;  691.651;  341.721;  171.503
417.549;  909.851;  522.718;  318.508
417.838; 2483.028; -205.268; -147.518
418.128; 8463.215;  650.710;  492.522
418.418; 6930.701; -491.272; -579.509
418.708; 4599.180;    9.726;  -48.506
418.997;18086.025; -474.275; -480.505
419.287;18419.038; -733.273; -790.507
419.577;17944.257; -160.283; -123.489
419.866;57407.001; -588.277; -498.501
420.156;55816.652; -242.270;  -55.513
420.446; 9231.425; -112.263;  -26.526
420.735;  934.544; -376.271; -446.512
421.025;  923.536; 1830.722;  315.502
421.314;  595.742; -203.271; -226.512
421.604;  744.644;   89.732;  233.484
421.893;  467.637; -705.271; -602.511
422.183;  297.325; -487.263; -461.526
422.472;  437.239;  -36.271; -107.511
422.762;  428.325; -416.266; -379.521
423.051;  313.341; -916.276; -916.503
423.341;  345.066; -491.273; -439.507
423.630;  435.557; -121.265;   15.477
423.919;  452.049;   58.725;   49.495
424.209;  488.432;  -31.263;   56.473
424.498;  649.849;   68.732;  161.483
424.787; 1516.557; -535.267; -601.518
425.077; 4406.130;   34.735;   29.478
425.366; 4816.614; -734.262; -744.528
425.655;13609.917;  639.727;  259.493
425.945;34913.348; -313.247; -268.554
426.234;18282.667;  117.741;  300.467
426.523; 7539.823;  -86.259; -350.534
426.812;10140.895;  107.734;  159.480
427.101;15179.614; -127.269; -323.515
427.390;17733.582;  -55.270;  -86.514
427.680; 2546.723; -624.257; -411.538
427.969;  519.786; -330.255; -301.540
428.258;  388.137; -385.257; -477.536
428.547;  525.981;  449.728;  397.490
428.836;  760.231; -421.253; -398.543
429.125; 1051.751; -199.259;  -72.534
429.414;  822.184; -330.251; -294.548
429.703; 4639.659; -231.251; -213.548
429.992;14376.863; -938.250; -828.549
430.281; 9073.016; -397.264; -331.524
430.570;  661.522;  -21.252;   32.454
430.859;  469.548;  279.741;  352.466
431.148;  471.743;  636.752;  631.446
431.437;  338.472;  391.748;  367.454
431.725;  233.714; -544.257; -481.536
432.014;  234.815; -845.253; -756.545
432.303;  439.187; -149.239; -105.569
432.592;  581.050; -460.263; -178.525
432.881; 1479.170; -601.248; -437.554
433.169; 9776.812; -343.255;  -61.540
433.458;19701.104;  445.765;  540.424
433.747; 7711.221; -397.261; -289.529
434.036;  972.657; -275.242; -280.564
434.324; 2978.704; -395.249; -379.551
434.613; 5389.199;   40.757;  159.437
434.902; 1532.250;  333.760;  439.433
435.190;  322.585;   75.761;  295.431
435.479;  200.301;  -52.245;   83.441
435.767;  108.136; -411.244; -427.561
436.056;  220.352; -340.242; -294.563
436.345;  522.877; -372.240; -223.568
436.633;  479.798;   60.750;  383.450
436.922;  224.030;  208.760;  414.432
437.210;  263.291; -194.236;    1.426
437.499;  590.851; -583.235; -432.576
437.787;  643.366; -339.236;  -10.574
438.075;  230.467;   56.761;  162.430
438.364;  232.420;  -44.238;  250.429
438.652;  144.625; -286.226; -138.592
438.941;  102.980;    3.770;  269.415
439.229;    8.319; -665.252; -466.545
439.517;   39.636; -160.234;  -85.577
439.806;    9.619; -501.225; -290.595
440.094;  165.096;  377.766;  650.421
440.382;   54.126; -653.233; -302.580
440.670;   67.826; -361.235; -285.576
440.959;   25.916; -347.223; -170.599
441.247;   45.869; -151.229; -109.587
441.535;   71.734; -266.235;   31.423
441.823;   11.417; -497.234; -305.578
442.111;  165.400;  173.771;  327.412
442.400;  333.876; -628.245; -335.559
442.688;  569.745; -111.234; -620.579
442.976;  290.599; -786.213; -450.617
443.264;   54.627; -324.224; -364.597
443.552;   60.901; -258.226;   51.408
443.840;  160.508;  602.765;  876.423
444.128;  105.750;  265.767;  269.420
444.416;   -1.322; -694.228; -312.588
444.704;   35.152; -465.219;  -92.605
444.992;   67.204;   -0.226;  240.407
445.280;   31.306; -517.230;  -94.585
445.568;    5.803; -694.212; -396.618
445.856;  148.832; -174.221;  357.398
446.143;  280.348;  -54.220;   -7.604
446.431;  261.332;  -25.228;  625.411
446.719;  174.976;  489.783;  675.391
447.007;  159.199;  481.769;  705.416
447.295;  196.037;  597.777;  871.402
447.583;   88.991; -464.229;  -34.587
447.870;  133.904; -434.221; -202.601
448.158;  240.904; -104.230;  129.415
448.446;  157.899; -800.219; -338.604
448.733;  146.954;   13.776;  269.403
449.021;  219.028;   60.788;  341.382
449.309;  197.221; -296.210;  208.379
449.596;  242.821;  128.783;   59.392
449.884;  229.596; -571.222; -325.600
450.172;  298.139; -756.227; -406.590
450.459;  665.228;  645.786;  780.387
450.747; 3851.644; -411.218; -147.608
451.034;12379.984;  493.772;  889.411
451.322; 9934.507; -413.214; -170.614
451.609;  763.256;  292.777;  508.403
451.897;  928.374; -550.203; -183.634
452.184; 2786.887; -622.223; -400.598
452.472; 2462.873;   97.792;  269.375
452.759;  346.800;  512.781;  864.395
453.047;  116.250; -407.212; -125.617
453.334;   43.134; -732.219; -216.606
453.621;   42.785; -438.214; -161.615
453.909;  101.614;   13.796;  384.368
454.196;  126.745; -299.199; -123.641
454.483;  267.190;  317.798;  540.364
454.771;  168.401; -215.208;  196.374
455.058;   66.156; -316.207;  102.374
455.345;  167.388;   71.807;  344.347
455.632;  148.110; -128.207;  235.373
455.919;   85.273;  -82.196;  182.354
456.207;  -30.149; -774.198; -450.642
456.494;   22.180; -475.200;  -66.639
456.781;   36.460; -399.202; -198.635
457.068;   89.718; -253.206;  -29.628
457.355;   22.594; -698.206; -401.629
457.642;   26.451; -552.205; -290.630
457.929;   56.752; -778.194; -417.651
458.216;  138.525; -575.212; -354.617
458.503;  395.408; -173.193;  -19.652
458.790;  435.549; -864.208; -630.625
459.077;  401.141;  -77.202;  110.364
459.364; 1237.344; -350.195; -210.649
459.651; 2624.115;  -46.206;  220.372
459.938; 1175.112; -864.209; -665.623
460.225;  127.320;  132.799;  276.363
460.512;  -16.780; -836.197; -688.645
460.799;  141.443;  -32.218;  320.392
461.086;  130.011; -370.200; -251.640
461.372;   40.826; -509.198; -279.642
461.659;   74.324; -165.196;  108.354
461.946;   46.981; -445.193;  -54.651
462.233;  216.583;  842.800;  888.361
462.519;  520.579; -814.201; -464.639
462.806; 1560.220; -768.197; -497.645
463.093; 1317.257; -445.191;  -66.656
463.380;   28.933; -920.186; -824.664
463.666;   55.172; -259.197;  -18.646
463.953;  150.362; -406.195; -243.648
464.239;  275.062; -173.195;  -77.648
464.526;  406.750;  413.806;  743.350
464.813;  349.196; -565.190; -304.658
465.099;  349.108;  606.807;  607.348
465.386;  283.287;  903.807;  921.348
465.672;   34.470; -694.197; -522.645
465.959;   69.593; -598.188; -520.662
466.245;   34.012; -468.193; -359.652
466.532;   66.859; -109.195;   63.352
466.818;   22.432; -357.186; -216.664
467.104;    5.332; -488.182; -415.672
467.391;   16.023; -628.189; -459.658
467.677;   35.237; -289.186;    9.335
467.964;   13.456; -682.189; -471.660
468.250;   54.715; -331.186; -160.665
468.536;   98.675;   90.811;  180.341
468.822;   12.980; -821.184; -574.668
469.109;  163.407;  351.827;  471.311
469.395;  210.024;  729.808;  787.346
469.681;  262.854;   46.811;  156.341
469.967; 1849.834; -699.188; -382.660
470.254; 4138.419; -494.188; -306.662
470.540; 2541.323; -601.196; -476.646
470.826;  398.846; -488.181; -397.675
471.112;  423.559;  288.816;  113.331
471.398;  118.990; -253.183;  -58.670
471.684;   58.381; -626.177; -447.680
471.970;   51.800; -918.180; -981.675
472.256;   63.273; -521.192; -441.654
472.542;   40.720; -499.171; -434.691
472.828;   37.977; -743.182; -607.672
473.114;   46.574; -380.166; -283.700
473.400;   38.226; -504.175; -293.684
473.686;   59.657; -452.166; -400.701
473.972;   50.694; -230.174; -131.687
474.258;    6.482; -925.173; -843.689
474.544;  327.545; -183.178;   -2.679
474.830;  512.678;  -65.175;   45.316
475.116;  805.748; -123.190; -196.658
475.401; 1094.803; -558.180; -467.676
475.687;  301.102; -725.180; -718.676
475.973;   11.662; -673.181; -770.673
476.259;  262.281;  736.825;  764.315
476.544;  549.290; -539.176; -437.682
476.830; 1414.065; -398.172; -322.690
477.116; 1218.464; -430.177; -336.682
477.401;  174.678;  346.820;  358.324
477.687;    0.126; -289.175; -405.684
477.973;   42.716;   21.819;   28.326
478.258;    0.182; -448.163; -348.706
478.544;   37.397;   21.815;   61.334
478.829;  -38.173; -818.171; -738.692
479.115;  -33.085; -749.172; -651.690
479.401;   23.188; -444.174; -449.686
479.686;   55.576; -253.180;  -74.676
479.972;   12.777; -886.178; -776.680
480.257;   52.176; -258.166;  -65.700
480.542;   34.132; -614.170; -469.693
480.828;  247.749; 1288.824; 1392.317
481.113;  -13.504; -464.176; -426.683
481.399;    8.236; -236.161; -202.711
481.684;  -37.775; -620.166; -462.700
481.969;   29.578; -158.159;  -73.713
482.255;    5.695; -439.169; -285.695
482.540;   35.377; -569.178; -441.680
482.825;   43.177; -395.187; -404.663
483.110;  170.399;  -85.169; -105.696
483.396;  369.604; -840.157; -652.718
483.681;  742.819;  543.826;  730.313
483.966;  299.920; -696.160; -700.712
484.251;    7.043; -404.174; -310.687
484.536;   22.538; -356.165; -378.703
484.822;   59.422; -205.173; -218.687
485.107;    0.801; -599.152; -502.726
485.392;  127.970;  662.836;  541.296
485.677;   92.711;  354.832;  163.302
485.962;  127.226;  160.843;  270.283
486.247;  112.717;  -14.162;   -8.707
486.532;   92.127; -178.166; -325.701
486.817;  199.204;  381.839;  431.291
487.102;  148.655; -453.154; -514.722
487.387; 1061.032; -637.156; -652.718
487.672; 1934.351; -154.164;  -38.705
487.957; 1184.088; -394.160; -286.711
488.241;  336.347; -290.150; -314.729
488.526; 1184.703; -280.152; -148.726
488.811; 1956.029; -881.177; -818.680
489.096; 1379.634; -666.154; -702.723
489.381;  733.774;    3.847;  162.275
489.666;  651.311; -428.161; -510.710
489.950;  205.962;  558.846;  627.277
490.235;  -26.909; -480.151; -458.728
490.520;  -27.540; -756.161; -723.710
490.804;  -31.966; -827.156; -736.719
491.089;   25.516; -469.149; -299.732
491.374;   54.050; -132.164;  -75.704
491.658;    9.706; -817.147; -717.735
491.943;  149.833; -657.152; -609.727
492.227;  224.375; -178.155;  -38.721
492.512;   54.876; -294.157; -341.717
492.797;  -44.541; -713.149; -716.731
493.081;  -24.366; -588.147; -598.735
493.366;  -17.964; -751.161; -635.711
493.650;  236.274;  831.859;  917.254
493.935;   75.005; -648.147; -447.734
494.219;  -13.441; -778.142; -687.743
494.503;  -29.547; -585.150; -487.730
494.788;   68.365;   46.842;   74.285
495.072;  124.774;  184.850;  434.271
495.356;  237.570; -463.148; -343.733
495.641;  551.667; -812.146; -736.736
495.925;  467.415; -976.156; -903.719
496.209;   25.491; -599.149; -451.732
496.494;  -21.691; -763.142; -544.744
496.778;   27.206; -364.154; -360.722
497.062;  -33.485; -819.156; -627.719
497.346;   15.290; -869.160; -640.711
497.631;  180.925;  580.852;  560.266
497.915;   88.430;  -64.145;  175.261
498.199;   42.654; -341.157; -277.718
498.483;   48.701; -562.152; -508.725
498.767;  265.900;  301.850;  300.271
499.051;  276.713; -126.149; -100.732
499.335;   72.361; -693.149; -739.731
499.619;  -21.326; -381.129; -423.767
499.903;   15.949; -272.155;  -65.721
500.187;   27.389; -588.153; -316.724
500.471;   48.282; -796.152; -595.727
500.755;   99.960;   62.839;  -96.710
501.039;   13.099; -270.155; -357.721
501.323;   58.752;  -21.141;  264.254
501.607;   19.632; -447.163; -503.706
501.891;    8.306; -607.156; -512.718
502.174;  -13.706; -726.144; -585.741
502.458;   75.112;   89.849;  370.273
502.742;   60.456; -180.138; -191.751
503.026;  195.504; -412.147; -254.734
503.310;  317.026; -437.159; -375.713
503.593;  215.506; -464.147; -325.735
503.877;  131.556; -232.133; -156.760
504.161;  177.517;    2.847;  -50.724
504.444;  192.868; -841.158; -710.716
504.728;  766.774; -487.164; -522.704
505.012; 1116.196; -257.150;  -76.729
505.295;  809.561; -417.161; -212.711
505.579;  844.839; -256.156; -496.719
505.862; 1249.850; -555.145; -333.738
506.146; 1276.279; -681.159; -758.714
506.429;  569.680;  568.841;  461.286
506.713;  130.968; -732.151; -667.728
506.996;  465.930;   90.846;  295.278
507.280;  555.793; -633.165; -474.703
507.563;  380.597; -469.155; -261.721
507.847;  194.490; -423.153; -112.724
508.130;  181.562; -665.161; -456.711
508.413;  217.870; -758.167; -577.700
508.697;  419.120; -151.167;   12.300
508.980;  276.442; -422.153; -312.724
509.263;   26.042; -466.155; -450.720
509.547;   68.771; -124.150;   82.271
509.830;   59.640; -172.160;  140.289
510.113;   96.814;  128.844;  298.281
510.396;   65.849; -530.152; -300.725
510.680;   50.452; -818.145; -812.738
510.963;  208.110;  184.846;  180.277
511.246;  144.880; -493.150; -357.730
511.529;  301.383; -482.145;  -83.739
511.812;  617.976; -250.134;   10.241
512.095;  468.339; -740.151; -396.728
512.378;  111.461; -317.147; -245.736
512.661;   75.165; -703.137; -623.753
512.944;  117.186; -750.142; -637.744
513.227;  113.137; -170.137; -171.752
513.510;   70.519; -479.144; -671.741
513.793;   51.432; -485.140; -435.747
514.076;  177.925;  -43.127;  -39.771
514.359;  174.892; -294.149; -135.732
514.642;  154.065; -442.142; -567.744
514.925; 1145.480;  581.860;  561.253
515.208; 1646.847; -498.134; -443.758
515.491; 1017.689; -276.133; -182.761
515.773;  606.523; -410.143; -337.742
516.056; 3265.673;  249.864;  409.246
516.339; 4286.603; -754.136; -652.755
516.622; 2053.352; -518.150; -488.730
516.904;  584.307;  882.857;  975.257
517.187;  227.560; -730.138; -523.752
517.470;  426.706; -568.143; -510.743
517.752;  743.332; -624.136; -470.756
518.035;  595.445; -708.139; -725.749
518.318;  610.178; -799.136; -744.755
518.600; 3945.768; -300.132; -325.762
518.883; 5429.114;  310.858;   88.256
519.165; 2464.301; -585.138; -426.751
519.448;  432.618;  -61.132;  -19.762
519.730;  220.659; -573.126; -415.773
520.013;  246.109;  588.867;  664.240
520.295;  318.629;  -94.134;  -15.759
520.578;  666.634; -335.131; -305.764
520.860;  910.868; -254.132;   56.238
521.143;  651.209; -763.135; -584.756
521.425;  585.850; -251.125; -279.775
521.707;  975.825; -622.127; -380.771
521.990; 2805.851; -199.127;  167.229
522.272; 3167.359; -116.140;   -4.748
522.554; 1160.899; -237.143; -157.742
522.836;  266.526;  -24.134;   99.241
523.119;  192.253; -496.148; -189.734
523.401;  188.143; -448.130; -314.766
523.683;  179.591; -865.137; -693.753
523.965;  413.633;  408.862;  260.248
524.247;  447.176;   54.878;  170.220
524.529;  330.478; -451.134; -367.759
524.812;  496.195;   -3.130;  191.234
525.094; 1393.432; -773.138; -631.751
525.376; 2181.411; -143.124;   78.223
525.658; 1319.550; -441.136; -339.754
525.940;   98.255; -805.131; -671.764
526.222;   27.954; -188.136;  -88.755
526.504;   73.802; -190.131;   32.237
526.786;   41.657; -960.133; -647.760
527.068;  119.568; -124.123;  -67.778
527.349;    3.246; -865.137; -774.754
527.631;  132.918; -137.132;   22.238
527.913;  235.299; -664.127; -450.771
528.195;  334.941; -761.125; -639.774
528.477;  375.647;  -93.134;  -30.758
528.759;  280.445; -648.130; -522.766
529.040;  161.141; -569.123; -293.778
529.322;  100.070; -235.125;  -10.774
529.604;   93.422;  -47.130;   93.233
529.886;   51.834; -546.126; -302.773
530.167;   79.787;  232.870;  192.235
530.449;   57.311;    1.853;   63.265
530.731;   79.550; -572.122; -459.779
531.012;  170.176; -513.120; -216.784
531.294;  124.049; -118.116;  -43.792
531.575;  219.325;  290.875;  538.225
531.857;  145.591; -548.135; -266.757
532.138;  114.925; -113.141;   40.254
532.420;  125.686;  294.865;  403.244
532.701;   97.159; -722.133; -751.760
532.983;  190.963;  232.867;  182.239
533.264;   59.056; -243.126;  175.228
533.546;  -38.846; -491.136; -508.755
533.827;   34.305;  173.867;   -1.759
534.109;   31.241; -352.135;  -80.757
534.390;  113.398; -725.132; -582.762
534.671;  321.361; -270.135;  -82.756
534.953;  208.245; -751.123; -611.779
535.234;   55.430; -426.117; -255.789
535.515;  -26.814; -891.119; -735.785
535.796;   12.169; -431.128; -193.770
536.078;  -81.614;-1050.124; -904.777
536.359;    4.371;  -22.123;    3.221
536.640;   -7.432; -480.125; -197.774
536.921;  189.354;  225.871;  143.232
537.202;  559.978;  -87.138;  -16.751
537.483;  673.608;  251.869;  377.236
537.764;  279.737;   17.870;   98.235
538.045;  -19.854; -543.134; -371.758
538.326;   -0.144; -596.129; -447.768
538.607;   77.677; -686.127; -476.771
538.888;  280.890;   98.879;    5.218
539.169;  310.208; -704.122; -535.781
539.450;  416.078;  236.871;   16.233
539.731;  270.895; -361.121; -182.783
540.012;  181.101;  199.880;  412.216
540.293;  106.454;   82.876;  158.224
540.574;   20.474; -895.113; -717.796
540.855;  500.043;  435.879;  377.218
541.136;  691.355;   47.878;  139.220
541.416;  399.096; -161.130; -220.766
541.697;  315.778; -274.131; -170.763
541.978; 1675.439; -270.135; -315.757
542.259; 2123.451; -211.127; -236.771
542.539;  970.191; -191.116; -186.790
542.820;  205.025;  461.875;  480.225
543.101;  150.779;  -52.145;  -77.738
543.381;   56.001; -638.127; -591.771
543.662;  379.448;  159.873; -254.771
543.942;  984.871; -751.127; -830.770
544.223; 1661.182;  193.878;  161.219
544.504; 1096.535; -275.124; -182.777
544.784;  879.809; -592.126; -408.773
545.065; 2548.996;  104.884; -254.791
545.345; 2960.811;  227.881;   14.215
545.626; 1983.248;  -14.113; -108.796
545.906; 1410.012;   77.869;   98.235
546.186;  608.814;   92.874;  -95.773
546.467;  334.064;   99.877;  -95.778
546.747;  516.091;  264.884;  327.210
547.027;  600.684;   91.876;  111.223
547.308;  569.895; -376.127; -530.770
547.588;  588.432;  299.871;  371.232
547.868;  267.388;  458.870;  588.235
548.149;  260.855;  609.885;  593.207
548.429;  245.299; -347.127; -299.771
548.709;  380.025; -645.120; -461.784
548.989;  780.598;   84.882;   88.213
549.269; 3251.816;   10.868;  139.239
549.550; 7764.294;  215.877;  117.222
549.830; 6890.771; -758.111; -556.799
550.110; 1345.705; -468.110; -320.801
550.390; 1325.125; -128.122;  -56.779
550.670; 1954.368; -868.114; -783.795
550.950; 1304.892; -509.121; -471.782
551.230;  264.688;  549.879;  460.218
551.510;   35.891; -381.121; -326.782
551.790;   63.415; -173.109; -127.803
552.070;  328.664;  940.877; 1181.223
552.350;  717.841; -492.119; -377.786
552.630;  958.635;   -2.121;   77.219
552.909;  580.672;  181.884;   73.209
553.189;  392.749;  -49.132;   33.237
553.469;  386.241; -703.119; -514.786
553.749;  373.728; -469.127; -357.772
554.029;  284.261;   33.883;  -24.790
554.308;  266.460; -154.115;  -37.794
554.588;  143.218; -196.128; -204.770
554.868;  141.343; -366.121;  -47.782
555.147;  287.482; -114.115;  -46.793
555.427;  934.599; -260.116; -250.792
555.707; 6149.754; -284.115; -200.793
555.986; 7622.125; -719.111; -538.800
556.266; 3860.090;   23.884;   72.210
556.546;  247.591; -888.121; -675.782
556.825;  427.491; -657.114; -556.794
557.105; 2870.141; -125.128;   17.230
557.384; 3381.395;  122.884;  187.209
557.664; 1300.024; -717.116; -508.792
557.943;  234.342; -557.121; -411.782
558.222;  313.402; -345.118; -344.788
558.502;  437.383; -116.115;  -76.793
558.781;  749.778;  194.885;  499.208
559.061;  678.601; -232.118; -227.788
559.340;  458.908;  302.883;  353.211
559.619; 1182.914;   93.884;  148.210
559.899; 1715.885; -239.117; -266.789
560.178; 1553.458; -778.115; -593.793
560.457; 4804.337; -623.117; -562.790
560.736; 6842.501; -472.111; -482.800
561.015; 4478.413; -500.128; -502.769
561.295;  557.414;  180.893;  215.193
561.574;  466.530;  119.885;  116.207
561.853;  715.470;  274.891;  303.197
562.132;  800.186;  -45.114;  182.206
562.411;  669.585;  396.879;  553.219
562.690;  263.178; -592.115; -458.792
562.969;  182.832;  472.888;  630.203
563.248;  575.133; 2966.878; 2487.219
563.527;  472.750; -290.111; -408.800
563.806;  670.349; -650.127; -521.771
564.085;  702.733; -297.105; -206.810
564.364;  440.689; -594.117; -405.790
564.643;  825.636; -276.121; -223.781
564.922; 2999.412;  221.890;  397.198
565.201; 3068.917; -640.109; -700.803
565.479; 1280.576; -297.115; -219.792
565.758;  582.566; -810.128; -712.770
566.037;  780.968; -155.109; -100.803
566.316;  381.621; -286.116;  -28.791
566.595;   80.154;  -17.115;  -12.793
566.873;  135.003; -166.111;  -79.801
567.152;  -21.043; -490.113; -590.797
567.431;   51.016; -113.116;    6.210
567.709;   55.689; -344.107; -212.807
567.988;  493.465; -810.114; -769.794
568.266;  907.429; -160.115;  -68.793
568.545;  670.290; -644.100; -514.819
568.824;  933.150;  160.885;  356.208
569.102;  982.090; -351.114; -235.794
569.381;  421.324; -492.116; -407.792
569.659;   -6.448; -553.113; -553.796
569.938;  126.130; -743.122; -465.780
570.216;  205.546; -225.109; -225.804
570.494;   35.844; -632.114; -572.795
570.773;   49.216;  202.879;  114.218
571.051;   65.417; -373.123; -357.778
571.330;  122.374; -221.113; -174.796
571.608;   91.337; -181.098; -173.823
571.886;  -22.957; -671.111; -581.799
572.164;  -25.682; -739.121; -621.782
572.443;   -4.188; -562.105; -512.811
572.721;  -12.438; -399.117; -289.790
572.999;    1.729; -280.117; -168.788
573.277;  117.879;  379.894;  620.191
573.555;  467.432;   94.894;   37.190
573.834; 2199.354;  -86.117; -114.788
574.112; 2477.217;  880.893;  811.193
574.390;  768.877; -143.111;  -96.801
574.668;   41.158;  -91.112;  -61.797
574.946;   13.282; -165.106; -187.810
575.224;   35.617;   71.891;  -16.803
575.502;    8.118; -200.116; -204.791
575.780;  -49.591; -767.112; -829.798
576.058;  233.451; 1589.889; 1004.200
576.336;    6.457; -210.110; -129.801
576.614;  -23.040; -511.112; -340.798
576.891;  175.085; -711.115; -823.794
577.169;  836.231; -158.108; -285.805
577.447;  930.166;  169.893;  202.193
577.725;  369.240;  629.888;  854.201
578.003;   49.038;  -71.112; -371.798
578.280;  140.823; -208.104; -242.812
578.558;  120.208; -450.115; -422.793
578.836;  157.669; -210.114; -145.795
579.114;  102.858; -630.112; -670.797
579.391;   74.081;   -6.117;  -18.789
579.669;  -22.489; -595.114; -704.794
579.947;  296.287; -326.107; -127.806
580.224;  589.087; -692.107; -524.806
580.502;  517.717;  127.893;   76.193
580.779;   61.338;  -42.117;   75.210
581.057;  -62.103; -584.109; -470.804
581.334;  -69.633; -726.102; -695.815
581.612;   49.483;   54.895;  511.190
581.889;   -9.742;  -83.101; -129.818
582.167;  -11.900; -298.099; -190.821
582.444;  -70.574; -845.102; -814.817
582.721;  103.977;  657.899;  715.183
582.999;  100.047; -326.100; -167.821
583.276;  914.447; -812.123; -713.779
583.553; 1215.045; -364.102; -294.816
583.831;  454.719; -607.104; -631.812
584.108;  101.579;  349.892;  174.195
584.385;   52.141; -122.102;  -98.815
584.662;  -28.747; -651.111; -828.801
584.940;   61.527;  204.889;  204.199
585.217;    6.902;  -73.113; -303.796
585.494;   57.388;   71.890;  118.198
585.771;  343.473; -250.109; -354.804
586.048;  838.776; -196.113;  -76.796
586.325;  542.606; -721.110; -773.801
586.602;  143.124;  230.896;  213.188
586.879;   50.168; -499.100; -580.820
587.156;  101.659; -156.105; -331.810
587.433;   22.949; -701.102; -667.817
587.710;  111.485;  152.888;  234.202
587.987;  472.090; -264.105; -236.811
588.264; 1186.962;  315.888;  387.202
588.541; 1960.677;  -61.104;   26.187
588.818; 4059.675;   72.892;  171.196
589.095; 3511.021; -163.104; -174.812
589.371;  594.995; -459.109; -414.804
589.648;   64.717; -581.107; -437.807
589.925;  107.020; -517.114; -621.795
590.202;  103.960; -741.112; -607.798
590.478;  174.893; -166.105;  -73.811
590.755;  418.483; -241.108; -132.806
591.032; 3792.559; -741.110; -699.802
591.308; 5479.712; -732.094; -790.831
591.585; 2778.408; -573.110; -560.802
591.862;  318.376;-1056.102; -950.817
592.138;  151.080; -475.108; -474.805
592.415;  257.750; -486.104; -495.813
592.691; 2188.847;  460.896;  518.188
592.968; 2951.540; -208.098; -123.824
593.244; 1428.116; -695.116; -595.790
593.521;  121.651; -105.102;  -42.817
593.797;   59.102; -810.122; -720.780
594.074;  557.180; -611.096; -588.826
594.350;  960.769;  828.905;  729.172
594.626;  487.203; -303.111; -283.801
594.903;  256.052; -643.101; -645.817
595.179;  294.604;  243.896;  418.187
595.455;   29.694; -136.107; -150.807
595.731;   32.056;  -19.103;  -38.814
596.008;   -8.029; -464.111; -434.800
596.284;   93.271; -187.100; -242.820
596.560;  150.670; -501.093; -493.833
596.836;  339.261; -173.105;  -70.810
597.112;  581.081; -582.108; -437.805
597.388;  472.553;  -49.097;  -48.826
597.665;  162.355;  437.887;  530.203
597.941;  -21.694; -572.089; -658.839
598.217;   61.613; -323.110; -293.802
598.493;  437.900;   61.891; -204.804
598.769;  846.639; -175.100;  -50.819
599.045;  538.584; -490.108; -562.806
599.321;  129.844; -193.100; -261.820
599.597;  264.499; -355.109; -476.804
599.872;  740.127;  409.896;  429.187
600.148;  615.805;  -61.097; -172.826
600.424;  444.815;   91.893;  202.193
600.700;  424.118; -170.107; -280.807
600.976;  237.798; -442.097; -464.825
601.252;  430.595; -226.109; -272.803
601.527;  432.203; -833.104; -840.813
601.803;  269.343; -453.105; -404.812
602.079;  297.489; -124.100; -118.819
602.354;  937.307; -620.092; -531.835
602.630; 1323.752; -140.113; -482.796
602.906; 3436.533; -910.101; -863.818
603.181;10524.641; -627.119; -534.786
603.457; 8825.827;   98.903; -278.826
603.733; 1318.196; -605.120; -626.783
604.008; 1422.233; -245.106; -164.810
604.284; 4825.028; -636.101; -580.817
604.559; 4151.690;   -3.112;  -42.799
604.835;  766.386; -163.105; -225.810
605.110;  716.626; -732.099; -892.821
605.385; 1054.273;  224.907;  267.167
605.661; 1058.522; -625.095; -729.829
605.936; 1960.960; -664.108; -737.806
606.211; 1587.464;  -17.103; -170.815
606.487;  376.238; -329.114; -376.794
606.762;  116.891; -791.119; -745.786
607.037;   34.036; -501.105; -433.810
607.313;   -0.086; -589.096; -574.828
607.588;   10.882; -375.106; -137.810
607.863;   99.432;  -28.101; -143.818
608.138;  260.536;  513.890;  516.198
608.413;  132.506; -576.099; -592.822
608.688;  102.755; -203.108; -267.805
608.964;  353.350; -509.106; -218.809
609.239;  418.208; -107.105; -212.810
609.514;  359.618;  281.895;  240.188
609.789; 1084.673; -187.104; -716.812
610.064; 1427.163; -435.096; -609.827
610.339; 1429.445; -855.109; -799.804
610.614; 1935.070; -131.100; -315.820
610.889; 1052.893;  215.895;  107.188
611.163;  114.894; -407.104; -591.812
611.438;  168.815;   81.886; -167.794
611.713;   76.628; -467.101; -499.817
611.988;  130.706; -144.101; -328.818
612.263;   56.692; -771.102; -717.815
612.538;  300.876;  385.887;  251.204
612.812;  364.872; -832.100; -911.820
613.087;  299.662; -358.098; -338.823
613.362;  -21.732; -497.107; -557.807
613.637;   70.010;  261.897;  138.186
613.911;   19.008; -256.092; -345.835
614.186;  214.091; -249.107; -292.807
614.460; 1186.623; -842.081; -758.854
614.735; 1275.435;  -55.087;  -17.843
615.010;  279.972;   43.912;  -82.841
615.284;  347.429;  360.892;  246.195
615.559;  676.981; -792.092; -955.835
615.833;  464.503;  -76.099;  -87.822
616.108;   52.821; -225.090; -390.837
616.382;  206.912;  274.913;  402.156
616.656;  285.771; -241.090; -232.837
616.931;  818.979; -785.099; -700.822
617.205; 1727.028; -973.104; -979.813
617.480; 1547.522;  -91.125;    6.225
617.754;  309.544; -396.125; -128.774
618.028;   56.808; -369.129; -382.768
618.302;  103.828;   73.892;  -25.805
618.577;   -1.164; -371.103; -518.815
618.851;  -32.234; -399.109; -600.803
619.125;  -30.597; -335.134; -378.759
619.399;   -9.546; -244.104; -374.813
619.673;  -29.500; -330.115; -515.792
619.947;  -28.007; -333.114; -448.795
620.222;    6.905; -198.110; -204.801
620.496;   26.918;  -47.121;  -96.782
620.770;   42.533; -187.122;  -93.781
621.044;  312.534;  323.895;  346.190
621.318; 1179.171; -653.120; -614.783
621.592; 1088.994; -430.121; -409.783
621.866;  637.516; -476.112; -572.799
622.140;   77.093; -207.116; -356.791
622.413;   82.096;  138.889;  112.200
622.687;   12.079; -746.101; -492.817
622.961;   28.553; -130.108; -143.805
623.235;  -18.203; -633.111; -661.800
623.509;  -72.683; -816.105; -848.811
623.783;   36.838;  -12.107;   48.193
624.056;    6.773; -254.120; -280.783
624.330;   76.758;   63.888;   -3.797
624.604;   98.964; -271.116; -355.790
624.877;  137.210;  180.890;   26.198
625.151;  106.637; -249.114; -238.794
625.425;   -4.994; -150.103; -283.814
625.698;  -40.516; -367.119; -374.785
625.972;  -59.962; -799.110; -765.802
626.245;   90.641;  685.884;  484.210
626.519;  -40.172; -426.120; -340.784
626.792;  -33.007; -192.107; -380.807
627.066;  -60.801; -485.122; -662.779
627.339;  -77.467; -736.110; -663.802
627.613;   50.701;  351.880;  148.216
627.886;   65.040;  187.891; -612.803
628.160;   18.771;  312.880; -161.783
628.433;  -76.824; -695.125; -703.775
628.706;  -61.847; -517.120; -615.784
628.979;   48.159;  296.876;  117.223
629.253;  -42.735; -785.119; -833.786
629.526;  603.382; -334.126; -253.772
629.799;  634.893; -641.123; -479.778
630.072;  301.010; -497.128; -516.769
630.346;   13.466;-1115.116;-1080.790
630.619;  742.294; -467.107; -545.808
630.892;  950.973;  709.889;  593.200
631.165;  485.004;  790.896;  679.187
631.438;   -5.713;-1092.112;-1055.798
631.711;   66.471;  453.877;  257.221
631.984;  -20.815; -523.117; -624.789
632.257;  -41.419; -636.117; -681.789
632.530;  -32.891; -412.119; -433.785
632.803;   38.409; -109.115;    7.207
633.076;  -48.062; -360.123; -422.777
633.349;   21.790;  173.872;  121.231
633.622;  -26.642; -187.119; -240.785
633.895; -101.978; -903.120; -823.783
634.167;  -53.616; -496.126; -525.773
634.440;   -1.851;  -19.116; -137.792
634.713;   25.839;  -22.119; -120.786
634.986;   93.602;  593.871;  453.233
635.258;  -46.068; -507.115; -597.793
635.531;  103.801;  742.882; -343.788
635.804;   -9.591; -303.117; -318.789
636.077;  -77.181; -830.116; -852.791
636.349;   52.230; -586.115; -474.793
636.622;  443.031; 1695.874; 1392.228
636.894;  411.128; -474.120; -909.784
637.167;  313.448; -836.127; -789.771
637.439;   74.169; -278.128; -213.770
637.712;  -29.717; -312.126; -293.772
637.984;  -55.180; -635.116; -707.791
638.257;  503.839;  515.877;  488.222
638.529;  948.302; -881.125; -924.776
638.802;  411.585; -508.128; -449.769
639.074;  -82.543; -927.122; -952.781
639.346; -100.157; -942.135; -930.757
639.619;   13.013;  -79.142; -319.744
639.891;    6.249;  -83.122; -168.779
640.163;  -61.549; -689.122; -756.780
640.435;   47.503;  273.878;  103.220
640.708;   29.181;  -72.122; -132.780
640.980;    5.158; -366.122; -362.781
641.252;  252.660;  -25.121;  -71.781
641.524; 2520.262;  580.879;  573.219
641.796; 2787.265;-1094.121; -907.782
642.068;  492.267; -191.121; -300.782
642.340;  -39.306; -486.121; -566.783
642.613;   44.046;  294.880;  323.217
642.885;  -72.801; -787.120; -878.783
643.157;   -0.324; -810.120; -658.784
643.428;   86.053;  170.880;  218.216
643.700;  -44.645; -498.120; -425.784
643.972;  -27.992;  -16.119; -133.785
644.244;  -80.240; -474.119; -559.785
644.516;  -50.288; -250.119; -114.786
644.788;   52.039;  662.881;  548.214
645.060;    0.567;  -12.119; -124.786
645.332;  -82.956; -525.118; -535.787
645.603;   32.346;  479.882;  342.213
645.875;  -58.652; -334.118; -369.787
646.147;  155.051; 1487.882; 1242.212
646.418;  -12.672; -931.117; -918.788
646.690;  331.955; -714.117; -715.789
646.962;  116.357; -413.117; -451.789
647.233;   -1.265;   15.883;   11.211
647.505;  -91.113; -595.117; -475.790
647.776;   31.339;  328.884;  229.210
648.048;   21.516; -248.116; -418.790
648.320;  -34.681; -752.116; -679.791
648.591; -145.204;-1055.116; -958.791
648.862;  -70.227; -505.116; -577.792
649.134;   16.750;  115.885;  198.208
649.405;   11.253; -661.115; -618.792
649.677;  -29.820; -475.115; -598.793
649.948;   12.532; -181.115; -296.793
650.219;    6.784;  -37.115; -147.793
650.491;  -74.588; -431.114; -520.794
650.762; -114.236; -705.114; -731.794
651.033;  -77.634; -437.114; -424.795
651.304;  -63.032; -743.114; -728.795
651.576;  -35.529; -680.114; -645.795
651.847;  -36.227; -250.113; -140.796
652.118;  -20.875;  -32.113; -189.796
652.389; -110.823; -639.113; -722.796
652.660;  -21.720; -147.113;  -89.797
652.931; -127.443; -897.112; -871.797
653.202;  -65.916; -382.112; -541.798
653.473;  -56.564; -633.112; -533.798
653.744;  304.114; -595.112; -590.798
654.015;  276.091; -356.112; -303.799
654.286;  -40.182; -642.111; -663.799
654.557;  -20.330; -586.111; -521.799
654.828; -134.552;-1114.111;-1088.800
655.099;  -88.050; -404.111; -291.800
655.370;  -73.998; -427.111; -543.801
655.641; -104.321; -656.110; -714.801
655.911; -101.468; -618.110; -638.801
656.182;   44.759;  437.890;  387.198
656.453;   90.486;  830.890;  746.198
656.724;  -54.737; -466.110; -426.802
656.994;  -76.509; -553.109; -568.803
657.265;  -87.407; -862.109; -873.803
657.536;  -69.380; -500.109; -377.804
657.806; -100.453; -561.109; -593.804
658.077; -125.075; -866.109; -950.804
658.347;  -86.048; -523.108; -598.805
658.618; -113.871; -646.108; -694.805
658.888;  -29.019;  -41.108;  112.195
659.159;  -66.416; -432.108; -548.806
659.429;   10.161; -292.108; -349.806
659.700;   66.638; -435.107; -390.807
659.970;   30.815; -370.107; -359.807
660.241;   87.668; -754.107; -921.807
660.511;  800.370; -147.107; -174.808
660.781;  222.297; -793.106; -748.808
661.052;  -43.500; -222.106; -381.808
661.322;    3.977;   21.894;   -9.809
661.592;   14.104;  257.894;  148.191
661.862;  -55.969; -369.106; -382.810
662.133;  -74.466; -551.105; -502.810
662.403;  -95.039; -770.105; -676.810
662.673;  -39.087; -256.105; -213.811
662.943;  -94.510; -612.105; -551.811
663.213;   21.993;  -85.105;  -81.811
663.483;  -68.280; -593.104; -568.812
663.753;  -48.203; -194.104; -152.812
664.023;   -6.001;   68.896;  -32.813
664.293;  -52.023; -319.104; -126.813
664.563;  -96.296; -694.104; -648.813
664.833; -111.694; -743.103; -608.814
665.103; -102.642; -730.103; -793.814
665.373; -102.864; -766.103; -806.814
665.643;  -25.312; -863.103; -918.815
665.913;   98.640; -534.103; -714.815
666.182;  269.542; -685.102; -719.816
666.452;  439.595;  -22.102;  -89.816
666.722;   40.372; -724.102; -784.816
666.992; -102.501; -948.102; -921.817
667.261;  -69.849; -824.102; -808.817
667.531;  290.679;  134.899;   45.183
667.801;  902.881; -440.101; -412.818
668.070;  317.433;  714.899;  697.182
668.340;  -63.240; -883.101; -840.819
668.609;  119.613;  588.900;  301.181
668.879;  -66.935; -490.100; -558.819
669.149;  -63.083; -539.100; -516.820
669.418;  -86.131; -698.100; -726.820
669.688;    7.747; -482.100; -666.820
669.957;  185.474; -423.099; -546.821
670.226;   -0.199; -268.099; -331.821
670.496;  -74.172; -431.099; -635.822
670.765;  -72.694; -418.099; -501.822
671.034; -110.692; -872.099; -828.822
671.304;  -16.115;   55.902; -111.823
671.573; -120.188;-1085.098; -957.823
671.842;  148.740; -380.098; -294.823
672.112;  119.092; -692.098; -586.824
672.381;   27.819; -239.098; -214.824
672.650;  -90.029;-1005.097;-1021.825
672.919;  -75.676; -631.097; -507.825
673.188;  -77.349; -681.097; -878.825
673.457; -110.472;-1101.097;-1143.826
673.726;  -55.070; -579.096; -646.826
673.995;  -11.742; -533.096; -479.826
674.265;   22.385; -263.096; -333.827
674.534;   48.312; -183.096; -235.827
674.802;   76.389; -618.096; -703.828
675.071; 1417.842; -886.095; -801.828
675.340; 6168.119; -464.095; -339.828
675.609; 2014.921;  103.905;   82.171
675.878;  224.073; -949.095; -893.829
676.147;   78.626;  -26.095;   -8.829
676.416;  150.403; -210.094; -294.830
676.685; 1051.080; 1000.906; -622.830
676.953;  234.282; -603.094; -452.831
677.222;  -10.340; -193.094; -273.831
677.491;  -15.413;  -24.094; -127.831
677.759;    4.589;   11.907;  172.168
678.028;   20.241; -279.093; -222.832
678.297;   27.069;   71.907;  197.168
678.565; -118.779; -898.093; -944.833
678.834;  -41.452; -311.093; -268.833
679.102;  -60.875; -411.092; -391.834
679.371; -126.322; -898.092; -727.834
679.639; -125.145; -797.092; -786.834
679.908; -112.168; -794.092; -724.835
680.176; -144.091; -895.091; -941.835
680.445;  -66.288; -346.091; -352.835
680.713;  -11.161;  -58.091;  -23.836
680.982;  -87.659; -523.091; -525.836
681.250;  -91.482; -578.091; -507.837
681.518;  -73.779; -534.090; -751.837
681.787;   12.398; -204.090; -167.837
682.055;  -39.850; -490.090; -422.838
682.323; -116.298; -993.090; -992.838
682.591;   65.605; -216.090; -538.838
682.859;  155.732;    9.911;  -35.839
683.128;   12.509;  232.911;  497.161
683.396; -145.314;-1102.089;-1122.840
683.664;  -37.886; -241.089;   21.160
683.932;   19.866;  144.911;  -76.840
684.200;  -74.657; -576.088; -320.841
684.468;   -9.630;  -73.088; -124.841
684.736;  -24.327; -214.088; -175.841
685.004;  -98.700;-1024.088; -982.842
685.272;   10.177; -880.088; -774.842
685.540;  -27.196; -499.087; -557.843
685.808;  -54.618; -651.087; -682.843
686.076;  -65.116; -894.087; -969.843
686.343;  -34.964; -601.087; -815.844
686.611;   91.013; -195.087; -224.844
686.879;  604.316; -530.086; -553.844
687.147; 4962.118; -483.086; -480.845
687.414; 1497.270;  -12.086; -169.845
687.682;   62.172; -658.086; -757.846
687.950;  454.475;  259.915;  263.154
688.217;   97.552; -792.085; -760.846
688.485;   26.904; -632.085; -636.847
688.753;  839.906;  -11.085; -102.847
689.020;  365.959; -820.085; -851.847
689.288;  -65.889; -853.084; -787.848
689.555;  -13.062; -195.084; -148.848
689.823;  -26.160; -241.084; -345.849
690.090;  -63.482; -546.084; -651.849
690.358; -115.305; -877.084; -897.849
690.625;   15.072;  120.917;   45.150
690.892;  -46.601; -403.083; -369.850
691.160;  -13.873;   72.917;  -35.850
691.427;   14.679;  141.917;  130.149
691.694; -104.094; -855.083; -929.851
691.962; -114.242;-1177.082;-1060.852
692.229;   19.461;  127.918;   56.148
692.496;  132.938;  130.918;  -49.852
692.763;   46.715; -164.082; -201.853
693.031;  -44.508; -739.082; -716.853
693.298;   -6.955; -509.081; -368.853
693.565;  437.822; -155.081; -163.854
693.832; 1978.499;   -5.081;   -9.854
694.099;  283.451; -643.081; -642.855
694.366;  -18.371; -882.081; -896.855
694.633;  -11.544; -920.080; -633.855
694.900;  729.258; 4367.920; -114.856
695.167;  630.235; -214.080; -380.856
695.434;  212.188; -646.080; -623.856
695.701;  255.165;  121.921;  -61.857
695.968;  673.617; -365.079; -361.857
696.234; 1198.344; -415.079; -646.858
696.501;12465.747; -776.079; -614.858
696.768; 7007.024; -554.079; -617.858
697.035;  441.851; -632.078; -667.859
697.302;  103.053; -448.078; -552.859
697.568;   48.431; -458.078; -497.859
697.835;   -3.467; -683.078; -624.860
698.102;    8.610; -498.078; -407.860
698.368;  100.237;  384.923;  396.139
698.635;  -18.510;  -47.077; -424.861
698.901;    6.842; -240.077; -348.861
699.168;  144.894; -534.077; -456.862
699.435;  124.171;  -72.077;  -13.862
699.701;  -87.201; -868.076; -764.862
699.968;   21.676;  144.924; -441.863
700.234;  -74.447; -783.076; -822.863
700.500;  -38.620; -448.076; -539.864
700.767;    8.458;   -1.075;   26.136
701.033; -113.415;-1015.075; -963.864
701.299;  -45.063; -450.075; -483.865
701.566;  139.189;  950.925;  763.135
701.832;   36.792;  -31.075;  -76.865
702.098;  -48.106;-1054.074;-1034.866
702.365;  -34.904;-1098.074;-1030.866
702.631;   62.948;-1038.074;-1063.867
702.897; 1794.076; -765.074; -676.867
703.163; 3359.703;  348.926;  254.133
703.429;  257.430; -256.073; -273.868
703.695;   14.132; -796.073; -792.868
703.961;   51.285; -214.073; -210.868
704.227;  -24.938; -630.073; -725.869
704.493;  143.239;  613.927;  510.131
704.759;   14.841; -565.072; -540.870
705.025;   49.794; -203.072; -194.870
705.291;   23.646; -666.072; -562.870
705.557;  234.598;  719.928;   34.129
705.823;   84.750; -742.072; -694.871
706.089;  207.828; -307.071; -326.871
706.355;  450.105; -315.071; -244.872
706.620; 6446.482; -776.071; -729.872
706.886;10581.910; -309.071; -362.873
707.152; 1131.962; -818.070; -973.873
707.418;   61.414;-1153.070;-1186.873
707.683;   44.966; -550.070; -530.874
707.949;  -14.556; -547.070; -578.874
708.215;   19.271; -129.070; -207.874
708.480;   14.148; -520.069; -420.875
708.746;  150.500;   68.931;   28.125
709.011;  -24.647; -578.069; -612.876
709.277;  -66.045; -538.069; -543.876
709.542;  -34.593; -428.069; -387.876
709.808;   15.859;  -59.068;   89.123
710.073;  -43.763; -577.068; -695.877
710.339;   -5.611; -242.068; -228.877
710.604;  150.766; -780.068; -845.878
710.869;  516.218; -277.068; -366.878
711.135;  -33.929; -715.067; -628.879
711.400;  -71.752; -507.067; -608.879
711.665;  -45.825; -404.067; -479.879
711.931;  -77.123; -661.067; -677.880
712.196;  -77.120; -876.067; -954.880
712.461;  169.982; -402.066; -490.880
712.726;  319.759; -727.066; -771.881
712.991;  -55.589; -647.066; -664.881
713.256;  -20.436; -350.066; -332.882
713.521;  -41.834; -417.065; -381.882
713.787;  -40.132; -454.065; -472.882
714.052;   -4.830; -214.065; -400.883
714.317;  -58.277;-1045.065; -981.883
714.581; 1330.675; -374.065; -268.883
714.846; 2231.027; -822.064; -888.884
715.111;  187.329;  261.936;  257.116
715.376;    5.507;  -86.064; -223.885
715.641;   10.234; -365.064; -367.885
715.906;  474.236;   15.936; -551.885
716.171;  185.313;  221.937;  209.114
716.436;   77.116;  -78.063; -104.886
716.700;  -76.832; -818.063; -692.886
716.965; -100.455; -794.063; -807.887
717.230;  -57.628; -339.063; -392.887
717.494;    3.925;  -40.062; -134.888
717.759;  -75.748; -784.062; -640.888
718.024;   20.754;  269.938;  250.112
718.288;   79.706;  685.938;  395.111
718.553; -126.891; -803.062; -977.889
718.817; -119.914; -883.061; -899.889
719.082;  -21.987; -115.061; -125.890
719.346; -123.085;-1000.061; -947.890
719.611;  -35.357; -300.061; -255.891
719.875;  -75.230; -568.060; -537.891
720.140;  -32.503; -453.060; -603.891
720.404;   80.924; -136.060; -249.892
720.668; 1248.802; -475.060; -411.892
720.933;  551.329;  146.940;  137.108
721.197;  -70.169; -667.059; -600.893
721.461; -118.317; -851.059; -826.893
721.725;   -4.489;  -21.059; -250.894
721.990;  -63.762; -284.059; -204.894
722.254;  -16.310;  -26.059; -108.894
722.518;  -71.383; -286.058; -442.895
722.782;  -77.655; -743.058; -594.895
723.046;  153.497;  614.942;  570.105
723.310;   33.974;  374.942;  210.104
723.574;  -79.599; -654.058; -614.896
723.838;  -86.046; -576.057; -642.897
724.102;  -38.769; -226.057; -239.897
724.366; -107.617;-1032.057; -978.897
724.630;  -70.315; -749.057; -571.898
724.894;  -55.912; -722.057; -514.898
725.158;    1.965;   38.944; -295.898
725.422;  -39.458; -394.056; -327.899
725.685;  -40.031; -441.056; -349.899
725.949;  -58.378; -566.056; -519.900
726.213;  -39.051; -732.056; -811.900
726.477;  321.976;-1020.055; -933.900
726.740;  255.203; -274.055; -104.901
727.004;  483.156; -384.055; -510.901
727.268; 4509.858; -442.055; -400.901
727.531; 1561.035; -961.055; -775.902
727.795;   -1.663; -713.054; -673.902
728.059;  -22.535; -552.054; -557.903
728.322;  -56.408; -841.054; -669.903
728.586;  103.169; -692.054; -701.903
728.849;  -33.254; -695.053; -756.904
729.112;  -83.176; -812.053; -912.904
729.376; -107.249; -959.053; -905.904
729.639;  -58.872; -536.053; -536.905
729.903;  -92.695; -733.053; -699.905
730.166;  -33.292; -437.052; -399.906
730.429;   -5.815; -317.052; -468.906
730.693;  -27.513; -355.052; -894.906
730.956;  248.839;  810.948;  651.093
731.219; 1068.992; -310.052; -103.907
731.482;  242.794;-1003.051; -894.907
731.745;  274.596; -794.051; -935.908
732.009;   40.473;  -30.051;   50.092
732.272;  -81.849; -904.051; -771.909
732.535;  -36.097; -300.051; -310.909
732.798; -117.845;-1083.050;-1166.909
733.061;  -34.593; -430.050; -456.910
733.324;   27.235;   31.950; -180.910
733.587;   81.962;  290.950;  365.090
733.850;  -41.986; -973.049;-1050.911
734.113;   54.991;   33.951;   32.089
734.376;   41.794; -328.049; -447.912
734.639;  255.771; 1188.951; 1011.088
734.901;  124.298; -180.049; -402.912
735.164;  715.475; -883.048; -837.913
735.427; 2051.253; -166.048; -355.913
735.690;  213.730; -205.048; -234.913
735.952;   37.132; -923.048; -925.914
736.215;   54.009;-1113.048;-1009.914
736.478;  131.262; -771.047; -774.915
736.740;  316.939;   33.953;  129.085
737.003;  865.491; -658.047; -672.915
737.266; 6058.118;  -94.047;   46.084
737.528;  739.996; -682.047; -660.916
737.791;  477.898; -316.046; -327.916
738.053; 1016.000;  465.954;  649.083
738.316;13388.327; -162.046; -136.917
738.578;11640.030; -770.046; -736.918
738.841;  700.232; -382.046; -446.918
739.103;  313.534; -875.045; -777.918
739.365;  776.786;   79.955;  -69.919
739.628;   74.164; -884.045; -805.919
739.890;   27.341; -758.045; -710.919
740.152;   -2.557; -692.044; -754.920
740.414;   24.345; -408.044; -359.920
740.677;    1.623; -785.044; -634.921
740.939;    4.975; -587.044; -487.921
741.201;  449.002; -432.044; -572.921
741.463;  152.879; -689.043; -745.922
741.725;   50.132;  -21.043; -199.922
741.987;   73.159;  220.957;  116.078
742.249;   73.661; -751.043; -859.923
742.511;  364.963; -703.043; -794.923
742.773;   99.666; -546.042; -546.924
743.035;  162.268;  796.958;  533.076
743.297;   18.545; -963.042;-1013.924
743.559; 1101.322; -278.042; -262.925
743.821;  203.675; -735.042; -744.925
744.083;   36.852;  -44.041; -149.925
744.345;  -58.771; -869.041; -892.926
744.607;   67.206;   75.959;  122.074
744.868;   -4.891; -490.041; -554.927
745.130;  -80.814; -994.041;-1008.927
745.392;   71.538;   -1.040;  -44.927
745.653;   16.340; -411.040; -378.928
745.915;  190.918;  896.960;  631.072
746.177;   83.420;   35.960;  -43.928
746.438;   55.897; -428.040; -543.929
746.700;    7.674; -947.039; -988.929
746.961;   73.627; -659.039; -740.930
747.223;  228.004; -190.039;  -74.930
747.484;  181.281; -391.039; -471.930
747.746;  243.458;  -23.038; -106.931
748.007;  233.111; -647.038; -689.931
748.269;  439.838; -468.038; -440.931
748.530;  825.190; -852.038; -638.932
748.791;  418.617; -354.038; -420.932
749.053;  645.720;  286.963;  163.067
749.314;  700.472; -236.037; -169.933
749.575;  839.249; -945.037; -905.933
749.836; 1254.276; -217.037;   86.066
750.098; 3116.904;  -60.037;  -21.934
750.359;50269.456;  414.964;  555.066
750.620;16158.108; -121.036; -220.935
750.881; 1562.885; -585.036; -513.935
751.142; 1960.838; -950.036; -938.936
751.403;21332.515; -789.036; -705.936
751.664;12012.492;-1034.035; -999.936
751.925;  766.120; -175.035; -262.937
752.186;  433.522; -298.035; -278.937
752.447;  238.699; -590.035; -445.937
752.708;  137.026; -532.035; -648.938
752.969;   76.754; -566.034; -576.938
753.230;   65.631; -777.034; -672.939
753.491;   52.183; -650.034; -631.939
753.751;  119.635;  109.966;   19.061
754.012;  138.863;  258.967;  181.060
754.273;  114.315; -174.033;  -71.940
754.534;   75.217; -487.033; -580.940
754.794;  -39.231; -926.033; -911.941
755.055;  164.947; 1051.967;  881.059
755.316;    4.774; -700.032; -566.942
755.576;   18.376; -606.032; -576.942
755.837;   -0.872; -527.032; -695.942
756.097;    1.581; -530.032; -564.943
756.358;  -20.317; -725.032; -770.943
756.618;   -5.590; -705.031; -641.943
756.879;   66.487; -254.031; -349.944
757.139;  -74.060;-1098.031;-1116.944
757.400;  -16.533; -538.031; -553.945
757.660;   13.169; -365.031; -401.945
757.920;   57.721; -266.030; -228.945
758.181;   21.249; -468.030; -351.946
758.441;  -51.324; -870.030; -809.946
758.701;    2.178; -308.030; -215.946
758.961;   -2.195; -220.030; -278.947
759.222;  -31.942; -574.029; -502.947
759.482;  -66.040; -683.029; -723.948
759.742;  -54.513; -706.029; -547.948
760.002;    9.014;  -83.029; -143.948
760.262;   30.642;   50.972;  182.051
760.522;  -21.406; -498.028; -574.949
760.782;  -33.104; -738.028; -612.949
761.042;  -18.502; -618.028; -573.950
761.302;   74.876;   55.972;  -18.950
761.562;   77.728; -164.027; -154.951
761.822;  155.430; -710.027; -551.951
762.082;    0.057;-1104.027;-1093.951
762.342;   77.360; -328.027; -403.952
762.601;  102.762; -567.027; -506.952
762.861;  447.339; -281.026; -207.952
763.121;  423.366; -406.026; -411.953
763.381; 6376.619; -499.026; -485.953
763.640; 9151.046; -139.026; -307.954
763.900;  399.423; -242.026; -203.954
764.160;  120.675; -458.025; -491.954
764.419;    1.703; -726.025; -782.955
764.679;  -52.320; -795.025; -726.955
764.939;    8.582; -124.025; -210.955
765.198;  -60.141; -608.025; -563.956
765.458;  -72.113; -710.024; -612.956
765.717;  -65.161; -454.024; -590.957
765.976;  -40.409; -428.024; -411.957
766.236;  -55.757; -475.024; -610.957
766.495;   36.846;  260.977;   73.042
766.755;  -39.302;-1090.023; -987.958
767.014;   54.800; -594.023; -665.958
767.273;  -35.073; -373.023; -397.959
767.533;  -41.195; -228.023; -307.959
767.792;  -19.618; -151.022; -188.960
768.051;  -48.291; -228.022; -276.960
768.310;  -66.914; -546.022; -650.960
768.569;   -4.736; -161.022;    4.039
768.828;  -11.734; -285.022; -363.961
769.088;  -89.757;-1050.021; -942.961
769.347;  -58.930; -755.021; -599.962
769.606;  -88.702; -876.021; -857.962
769.865;  -77.625;-1016.021;-1033.963
770.124;   16.952; -411.021; -336.963
770.383;   -6.821; -778.020; -910.963
770.641;   46.557; -398.020; -400.964
770.900;  -31.466; -953.020; -846.964
771.159;  -12.939; -851.020; -951.964
771.418;   32.738; -917.020; -779.965
771.677;  152.391; -224.019; -293.965
771.936;  203.743; -794.019; -865.966
772.194; 2005.270; -465.019; -437.966
772.453;13533.797; -213.019; -391.966
772.712; 1074.475;  416.982;  329.033
772.970;  162.077;   32.982;   63.033
773.229;  116.529;  -22.018;  102.033
773.488;  -67.419; -814.018; -770.968
773.746;   63.959;  296.982;  335.032
774.005;    6.486;  190.983;  -22.969
774.263;   15.913;  243.983;  177.031
774.522;  -29.935; -422.017; -548.969
774.780;  -73.157; -484.017; -417.970
775.039;  -75.980; -551.017; -531.970
775.297;  -29.928; -135.016; -351.970
775.555;  -78.401; -489.016; -612.971
775.814; -112.073; -618.016; -570.971
776.072; -117.496; -749.016; -740.971
776.330;  -98.919; -630.016; -520.972
776.589; -112.592; -703.015; -721.972
776.847; -100.414; -645.015; -624.973
777.105; -155.437;-1016.015;-1032.973
777.363;  -82.535; -459.015; -454.973
777.621; -111.283; -660.015; -717.974
777.879;  -12.455;  -42.014;   32.026
778.138;  -83.903; -554.014; -717.974
778.396; -100.601; -585.014; -526.975
778.654; -150.049;-1015.014; -970.975
778.912;  -57.996; -269.014; -371.976
779.170; -115.344; -880.013; -803.976
779.427; -140.542; -922.013; -897.976
779.685; -116.990; -880.013; -832.977
779.943;  -54.187; -654.013; -593.977
780.201; -142.535; -964.012; -883.978
780.459; -108.208; -651.012; -610.978
780.717;  -77.581; -440.012; -390.978
780.974;  -92.703; -449.012; -490.979
781.232;  -65.026; -358.012; -338.979
781.490;  -53.199; -551.011; -472.979
781.747;  -80.547; -555.011; -476.980
782.005;    8.831;  462.989;  254.020
782.263; -157.092; -542.011;-1004.981
782.520;  -79.365; -326.011; -501.981
782.778; -153.388;-1013.010;-1051.981
783.035; -155.235; -962.010; -938.982
783.293;  -55.833; -248.010; -206.982
783.550;  -53.756; -134.010; -198.982
783.808; -113.179; -764.010; -776.983
784.065; -151.151; -745.009; -874.983
784.322;  -45.299;   25.991;  -86.984
784.580; -133.722; -915.009; -771.984
784.837;  -86.745; -392.009; -466.984
785.094; -123.767; -783.009; -762.985
785.352;  -54.990; -304.008; -404.985
785.609;  -70.813; -934.008; -839.985
785.866;  -55.436; -345.008; -401.986
786.123;  -33.183; -639.008; -583.986
786.380;  -80.181; -665.008; -604.987
786.637;  -28.429; -225.007; -380.987
786.895;   29.948; -456.007; -543.987
787.152;  -38.524; -135.007; -267.988
787.409;  -38.622; -123.007; -225.988
787.666;  -73.695; -299.006; -378.988
787.923;  -85.768; -616.006; -695.989
788.179; -101.515; -551.006; -584.989
788.436;  -94.838; -585.006; -585.990
788.693;  -21.536;  -92.006;  -87.990
788.950;  201.066; -125.005; -112.990
789.207;  420.244; -381.005; -372.991
789.464;  -41.454; -161.005; -301.991
789.720;   -8.202;  150.995;  110.009
789.977; -154.250;-1003.005; -671.992
790.234;  -24.872;   44.996;  -66.992
790.490; -132.795; -884.004;-1031.993
790.747;  -19.243;  -85.004;   22.007
791.004;    5.884; -426.004; -348.993
791.260;  -53.538; -430.004; -560.994
791.517;  -80.061; -843.003; -788.994
791.773;  -25.609; -379.003; -342.994
792.030; -100.107; -596.003; -660.995
792.286;  -83.504; -686.003; -636.995
792.543;   -7.652;  -74.002; -159.995
792.799;  -28.450; -584.002; -382.996
793.055; -141.023;-1179.002;-1210.996
793.312;  -77.395; -827.002; -816.997
793.568;  -40.468; -746.002; -599.997
793.824;   17.959; -226.001; -284.997
794.081;   50.686; -447.001; -508.998
794.337;   84.539; -664.001; -561.998
794.593; 1048.066; -319.001; -271.999
794.849; 7341.093; -746.001; -772.999
795.105;  489.370; -270.000; -261.999
795.361;   20.398; -490.000; -457.000
795.617;  -26.050; -875.000; -945.000
795.873;  -27.500; -360.000; -407.000
796.129;   -0.500; -368.000; -306.000
796.385;  -14.625; -124.000; -156.000
796.641;   77.600;  412.000;  550.000
796.897;  -83.275; -666.000; -635.000
797.153;   66.875;  453.000;  357.000
797.409;  -85.875; -785.000; -868.000
797.665;  -35.475; -625.000; -732.000
797.921;  -48.225; -775.000; -762.000
798.176;  -31.800; -744.000; -747.000
798.432;  -24.075; -824.000; -596.000
798.688;  -36.675;-1174.000;-1078.000
798.943;  112.875; -165.000; -147.000
799.199;   69.625;-1005.000; -959.000
799.455;  302.600;  369.000;  316.000
799.710;  208.925; -813.000; -380.000
799.966;  402.875; -162.000; -160.000
800.221;  630.150; -638.000; -721.000
800.477;11564.975; -743.000; -710.000
800.732;14201.375; -773.000; -800.000
800.988;  832.650;  205.000;  -19.000
801.243; 1532.850; -454.000; -344.000
801.498; 8612.850; -814.000; -739.000
801.754;  617.600; -289.000; -163.000
802.009;  110.700; -257.000; -335.000
802.264;   -7.950; -967.000;-1033.000
802.520;   38.300;  222.000;   -3.000
802.775;  -22.900; -524.000; -359.000
803.030;   56.050;  395.000;  356.000
803.285;  -98.650; -840.000; -903.000
803.540;  -43.025; -686.000; -699.000
803.795;    3.375; -648.000; -583.000
804.051;  -31.125; -279.000; -346.000
804.306;   27.550;  168.000;  128.000
804.561;  178.950;  451.000;  362.000
804.816;  146.700;  714.000;  861.000
805.071;   16.150; -185.000; -280.000
805.325;  346.100; -257.000; -427.000
805.580;  -59.225; -841.000; -877.000
805.835;   -2.500; -204.000; -297.000
806.090;  -65.775; -760.000; -676.000
806.345;    1.150; -344.000; -264.000
806.600;   -2.575; -549.000; -632.000
806.854;    1.075; -408.000; -538.000
807.109;    0.900; -493.000; -577.000
807.364;   27.350; -407.000; -328.000
807.618;   24.825; -415.000; -381.000
807.873;  103.750; -470.000; -494.000
808.128;  135.625; -257.000; -518.000
808.382;  147.800; -224.000; -332.000
808.637;  108.675; -440.000; -511.000
808.891;  228.950; -257.000; -180.000
809.146;  146.450; -902.000; -794.000
809.400;  362.375; -848.000; -923.000
809.654;  427.250; -779.000; -551.000
809.909;  599.125; -841.000; -927.000
810.163; 6429.300; -813.000; -651.000
810.418;23428.875; -940.000; -861.000
810.672; 1464.975; -685.000; -690.000
810.926;  779.900; -993.000; -973.000
811.180; 1313.400; -439.000; -372.000
811.434;27495.250;  240.000;  135.000
811.689;15690.450; -231.000; -365.000
811.943;  809.275; -936.000; -953.000
812.197;  358.100; -893.000; -671.000
812.451;  168.000; -379.000; -514.000
812.705;   -3.575; -809.000; -619.000
812.959;   13.925; -263.000; -388.000
813.213;   17.025; -283.000; -209.000
813.467;   78.100;  470.000;  253.000
813.721;  -81.150; -764.000; -792.000
813.975; -107.425; -826.000; -877.000
814.229;   40.550;  430.000;  353.000
814.482;  -34.775; -517.000; -566.000
814.736; -107.725; -766.000; -744.000
814.990; -118.100; -779.000; -872.000
815.244;  -44.775; -228.000; -285.000
815.497;  -74.675; -636.000; -601.000
815.751;  -11.350; -141.000;   82.000
816.005;  -92.975; -470.000; -586.000
816.258;  -56.275; -510.000; -363.000
816.512;  -79.600; -693.000; -610.000
816.766;    8.850;  121.000;  157.000
817.019;   27.725;  148.000;  149.000
817.273;  -87.975;-1000.000; -802.000
817.526;  -19.225; -206.000; -173.000
817.779;   10.125;-1049.000; -960.000
818.033;    1.400; -693.000; -807.000
818.286; -117.025; -725.000; -792.000
818.540;  -92.675; -403.000; -403.000
818.793;  -72.800; -402.000; -489.000
819.046;  -88.875; -582.000; -520.000
819.299;  -46.250; -157.000; -166.000
819.553; -111.800; -552.000; -592.000
819.806; -145.475;-1016.000; -838.000
820.059;  -48.525; -334.000; -354.000
820.312;   27.825;  152.000;  185.000
820.565;  -15.900;  110.000;  -27.000
820.818;  -47.525;  -59.000; -173.000
821.071; -140.550;-1041.000; -957.000
821.324;  -92.275; -536.000; -540.000
821.577; -102.950; -457.000; -483.000
821.830;  -59.875; -270.000; -172.000
822.083; -127.600; -733.000; -288.000
822.336;  -45.550; -261.000; -167.000
822.589; -116.450; -805.000; -688.000
822.842; -138.450; -875.000; -770.000
823.094; -158.925;-1076.000;-1114.000
823.347; -118.475; -925.000; -729.000
823.600;   14.725;  402.000;  187.000
823.853;  -37.525; -311.000; -267.000
824.105;  -45.750; -331.000; -575.000
824.358;  -79.575; -617.000; -716.000
824.611;   29.000;  234.000;   40.000
824.863;  -23.950; -612.000; -591.000
825.116;   88.450;  -33.000;   27.000
825.368;  125.925; -366.000; -372.000
825.621;  273.025; -186.000; -240.000
825.873;  158.000; -704.000; -737.000
826.126;  678.575; -669.000; -641.000
826.378;14326.425; -389.000; -505.000
826.630; 5230.175; -890.000; -898.000
826.883;  158.000; -754.000; -693.000
827.135;   95.325; -279.000; -270.000
827.387;  -78.650; -893.000; -839.000
827.639;  -25.175;  -86.000;   32.000
827.892; -115.425; -742.000; -582.000
828.144; -132.725; -848.000; -804.000
828.396;  -32.175;  104.000;  -80.000
828.648;  -82.225; -440.000; -333.000
828.900; -140.600; -702.000; -795.000
829.152; -102.075; -684.000; -683.000
829.404;  -45.575; -215.000; -267.000
829.656;   10.025;  321.000;  214.000
829.908;  -13.075;  393.000;  229.000
830.160; -146.575;-1064.000;-1047.000
830.412;  -86.925; -481.000; -430.000
830.664; -108.075; -557.000; -665.000
830.916;  -77.600; -268.000; -206.000
831.167; -171.425;-1073.000; -951.000
831.419; -111.175; -623.000; -566.000
831.671; -122.000; -764.000; -809.000
831.923;  -79.975; -311.000; -447.000
832.174;  -66.125; -273.000; -331.000
832.426; -120.450; -493.000; -582.000
832.678; -170.800;-1043.000;-1091.000
832.929; -149.150; -947.000; -935.000
833.181;  -36.025; -575.000; -677.000
833.432;  -34.325;  -59.000; -186.000
833.684;   -2.125;  112.000;  -27.000
833.935; -121.875; -610.000; -566.000
834.187; -112.000; -829.000; -823.000
834.438;  -51.400;  -58.000;  -25.000
834.689;  -51.650; -255.000; -123.000
834.941;  -46.675; -343.000; -244.000
835.192;  -80.775; -590.000; -533.000
835.443;  -73.375; -419.000; -506.000
835.695;   -5.300;  138.000;  -16.000
835.946;  -88.675; -608.000; -378.000
836.197;  -93.850; -599.000; -622.000
836.448;  -67.800; -528.000; -395.000
836.699;  -43.150; -253.000; -341.000
836.950;    0.475;   72.000;    7.000
837.201; -130.100;-1003.000; -987.000
837.452;  -32.375; -356.000; -170.000
837.703;  -79.900; -791.000; -737.000
837.954;  -20.325; -205.000; -365.000
838.205;  -39.575;-1029.000;-1008.000
838.456;  286.450; -196.000; -282.000
838.707;   60.175; -423.000; -519.000
838.958;   58.250; -634.000; -647.000
839.209;  406.125;   18.000;   40.000
839.460;  180.775; -439.000; -201.000
839.710;  237.675; -135.000; -297.000
839.961;  543.250;  730.000;  612.000
840.212;  462.025; -382.000; -497.000
840.462; 1297.100; -328.000; -277.000
840.713;20490.875; -571.000; -536.000
840.964;11827.300;  -62.000; -143.000
841.214;  740.875; -384.000; -624.000
841.465;  708.925; -214.000; -141.000
841.715;  674.225; -417.000; -380.000
841.966;  824.225; -746.000; -685.000
842.216; 8389.825; -330.000; -431.000
842.466;43892.050; -169.000; -313.000
842.717; 3726.200; -964.000; -952.000
842.967;  442.950; -635.000; -641.000
843.217;  388.275;   20.000;   28.000
843.468;  109.300; -104.000; -132.000
843.718;    4.500; -718.000; -726.000
843.968;  -58.425; -837.000; -765.000
844.218;   57.500; -315.000; -262.000
844.469;   -0.250; -577.000; -561.000
844.719;  -94.275; -537.000; -682.000
844.969;  -92.075; -550.000; -580.000
845.219; -121.025; -814.000; -862.000
845.469;  -61.200; -392.000; -342.000
845.719; -119.800; -792.000; -884.000
845.969;   -8.600;  119.000;  174.000
846.219; -100.325; -738.000; -720.000
846.469;   18.950;  464.000;  432.000
846.718;  -29.525; -115.000;   31.000
846.968; -121.875; -827.000; -827.000
847.218;  -37.775; -224.000; -371.000
847.468;   -6.425; -586.000; -555.000
847.718; -117.200; -827.000; -798.000
847.967; -117.800; -826.000; -915.000
848.217;  -62.675; -449.000; -569.000
848.467;  -58.450; -405.000; -376.000
848.716;  -98.425; -708.000; -725.000
848.966;   34.125; -372.000; -358.000
849.215;  -30.800; -428.000; -419.000
849.465;  -76.875; -785.000; -615.000
849.714;  -98.550;-1132.000;-1150.000
849.964;  -37.725; -551.000; -613.000
850.213;   10.000; -393.000; -355.000
850.463;  107.950;  137.000;  340.000
850.712;   52.375; -542.000; -567.000
850.961;   74.300; -739.000; -678.000
851.211;  188.475; -513.000; -504.000
851.460;  281.900; -635.000; -650.000
851.709;  726.075;  -25.000;   18.000
851.958;11617.675; -912.000; -750.000
852.208;20349.625; -859.000; -879.000
852.457;  901.275; -181.000;  -13.000
852.706;  171.025; -791.000; -823.000
852.955;  100.375; -507.000; -528.000
853.204;  -46.325; -521.000; -461.000
853.453;  -62.000; -418.000; -458.000
853.702; -116.850; -660.000; -750.000
853.951;  -99.275; -532.000; -520.000
854.200; -104.725; -613.000; -562.000
854.449; -113.875; -695.000; -661.000
854.698;  -95.100; -340.000; -279.000
854.946;  -75.175; -181.000; -284.000
855.195; -145.675; -843.000; -868.000
855.444;  -98.750; -395.000; -420.000
855.693; -116.325; -345.000; -432.000
855.941;  -96.875; -387.000; -516.000
856.190;  -26.300; -256.000; -382.000
856.439; -117.375; -652.000; -703.000
856.687;  -65.925;  -99.000;  -72.000
856.936; -112.950; -621.000; -323.000
857.184; -172.875;-1067.000;-1020.000
857.433; -101.325; -423.000; -512.000
857.681; -141.625; -989.000; -953.000
857.930;  -70.625; -282.000; -433.000
858.178; -158.450; -856.000; -929.000
858.427; -144.475; -802.000; -781.000
858.675; -110.900; -377.000; -544.000
858.923;  -96.550; -527.000; -819.000
859.172; -164.825;-1094.000;-1070.000
859.420;  -79.075; -339.000; -239.000
859.668; -120.075; -624.000; -628.000
859.916;  -38.400;  109.000;  115.000
860.164;  -92.525; -699.000; -603.000
860.413;  427.175; -878.000; -696.000
860.661;  530.750; -709.000; -577.000
860.909;  -64.375; -339.000; -325.000
861.157;  -65.750; -277.000; -444.000
861.405; -114.025; -534.000; -670.000
861.653;   27.950;  310.000;  310.000
861.901;  263.025; -543.000; -613.000
862.149;  145.450; -801.000; -824.000
862.396;  -77.825; -297.000; -187.000
862.644;  -66.900; -368.000; -347.000
862.892;  -35.475;   98.000;  138.000
863.140; -107.775; -549.000; -530.000
863.388; -148.875; -815.000; -759.000
863.635; -122.275; -642.000; -601.000
863.883;  -20.825;  231.000;  190.000
864.131;  -90.125; -288.000; -357.000
864.378; -127.525; -675.000; -540.000
864.626;  -96.700; -347.000; -415.000
864.873; -126.550; -556.000; -505.000
865.121; -126.475; -714.000; -799.000
865.368;  -40.350; -173.000;   75.000
865.616;  -21.900;  -33.000;  -40.000
865.863;  -58.775; -462.000; -506.000
866.111;  -98.250; -795.000; -824.000
866.358;   51.275; -426.000; -420.000
866.605; 2322.975;  -64.000; -804.000
866.853; 3462.300; -621.000; -537.000
867.100;   55.125; -728.000; -775.000
867.347;  -58.650; -672.000; -611.000
867.594;  -60.725; -740.000; -714.000
867.841;  154.550;   97.000;   17.000
868.089; -116.675; -746.000; -698.000
868.336; -108.250; -477.000; -420.000
868.583; -132.600; -637.000; -741.000
868.830;  -66.800; -131.000; -170.000
869.077; -157.300; -859.000; -787.000
869.324; -127.425; -502.000; -458.000
869.571; -111.100; -398.000; -430.000
869.818; -122.375; -485.000; -439.000
870.065;  -91.275; -439.000; -513.000
870.311; -119.550; -456.000; -542.000
870.558;  -99.250; -332.000; -311.000
870.805;  -93.225; -320.000; -384.000
871.052; -105.950; -494.000; -369.000
871.298;  -33.025; -204.000; -131.000
871.545;  -52.700; -151.000; -185.000
871.792;  -83.800; -173.000; -222.000
872.038;  -53.500;   43.000; -126.000
872.285; -107.375; -496.000; -387.000
872.532;  -87.800; -357.000; -387.000
872.778;    5.550;  556.000;  403.000
873.025;  -91.125; -384.000; -359.000
873.271;   11.600;  501.000;  578.000
873.517;  -13.025; -133.000; -209.000
873.764;    3.450; -193.000;  -80.000
874.010;  -60.000; -143.000; -230.000
874.257;  -28.100;  123.000;   90.000
874.503; -118.600; -579.000; -479.000
874.749;  -75.450;   31.000;  275.000
874.995;  -53.500;  -80.000;  -20.000
875.242; -105.150; -540.000; -478.000
875.488;  -98.750; -414.000; -439.000
875.734;  -52.075; -106.000; -234.000
875.980;  292.275; -872.000;-1032.000
876.226;  723.625; -157.000; -255.000
876.472;   14.600;  343.000;  237.000
876.718;  -33.350;  184.000;  158.000
876.964;  -34.025;   56.000;   55.000
877.210; -132.125; -547.000; -677.000
877.456; -126.875; -630.000; -557.000
877.702; -162.600; -821.000; -832.000
877.948;  -94.400; -377.000; -497.000
878.193;    0.725;  361.000;  255.000
878.439;  -64.200; -487.000; -472.000
878.685;  -92.325; -272.000; -343.000
878.931; -132.825; -618.000; -676.000
879.176;  -77.350; -201.000; -201.000
879.422; -153.000; -933.000; -820.000
879.668;   29.800;   10.000;   79.000
879.913;  248.700;   53.000;  137.000
880.159;  -34.975; -112.000;  -17.000
880.404;  -46.550; -152.000; -162.000
880.650;  -53.775;   91.000;  141.000
880.895; -154.550; -670.000; -710.000
881.141; -115.800; -454.000; -428.000
881.386; -145.275; -503.000; -658.000
881.631;  -80.350; -311.000; -166.000
881.877;  -24.325;  112.000;  -13.000
882.122; -117.750; -684.000; -600.000
882.367;  -87.350; -136.000; -186.000
882.612;  -72.800;  -80.000; -176.000
882.858; -148.975; -877.000; -823.000
883.103; -102.400; -297.000; -267.000
883.348; -134.125; -759.000; -852.000
883.593; -133.475; -677.000; -602.000
883.838;  -48.350; -311.000;  -24.000
884.083;   55.000;  353.000;  288.000
884.328;  -77.200; -564.000; -545.000
884.573;  -30.575; -196.000; -143.000
884.818;  296.075; -694.000; -531.000
885.063;  406.400; -348.000; -315.000
885.308;  -94.250; -475.000; -398.000
885.553;  -23.950;  245.000;  325.000
885.797; -123.750; -545.000; -615.000
886.042;  -64.850;    8.000;   58.000
886.287; -105.325; -253.000; -211.000
886.532;  -46.375;   26.000;  204.000
886.776;  -99.600; -407.000; -525.000
887.021; -136.875; -621.000; -574.000
887.265; -149.475; -685.000; -689.000
887.510; -124.700; -557.000; -496.000
887.755;  -95.300; -194.000; -164.000
887.999; -139.050; -552.000; -575.000
888.244;  -53.975;  -58.000;  161.000
888.488;  -26.175;  371.000;  393.000
888.732; -128.025; -368.000; -520.000
888.977; -126.875; -622.000; -567.000
889.221; -133.550; -683.000; -659.000
889.465; -108.500; -422.000; -566.000
889.710;  -77.775;  -56.000; -299.000
889.954;   -6.850;  579.000;  467.000
890.198; -129.725; -584.000; -707.000
890.442; -149.325; -716.000; -712.000
890.687; -173.925; -800.000; -753.000
890.931;  -93.700; -273.000; -210.000
891.175; -123.200; -502.000; -500.000
891.419;  -84.225; -105.000; -110.000
891.663;  -96.225; -239.000; -112.000
891.907; -154.900; -801.000; -545.000
892.151; -164.500; -920.000; -815.000
892.395; -111.525; -274.000; -387.000
892.638;  -30.800;  408.000;  291.000
892.882; -173.775; -780.000; -867.000
893.126;   12.975;  758.000;  558.000
893.370;  -97.950; -167.000; -168.000
893.614; -147.775; -714.000; -715.000
893.857; -100.850; -183.000; -197.000
894.101; -131.075; -527.000; -631.000
894.345;  -70.225;  300.000;  150.000
894.588;    6.525;  569.000;  380.000
894.832;  -84.650; -178.000;  -84.000
895.075;  -68.250;   15.000;  -92.000
895.319; -116.375; -552.000; -420.000
895.563; -113.925; -413.000; -353.000
895.806; -146.075; -628.000; -741.000
896.049;  -47.425; -576.000; -368.000
896.293;  160.350;  527.000;  405.000
896.536;  -31.825; -465.000; -468.000
896.779;  -50.275; -149.000;   -1.000
897.023; -133.975; -751.000; -714.000
897.266;  -22.425;  325.000;  269.000
897.509; -173.525; -900.000; -901.000
897.752;  -44.825;  149.000;  171.000
897.996; -178.000; -972.000; -864.000
898.239;  -45.000;  168.000;  102.000
898.482; -119.900; -431.000; -453.000
898.725;  -22.025;  101.000;   53.000
898.968; -127.950; -609.000; -744.000
899.211; -100.100; -513.000; -361.000
899.454;  -95.525; -633.000; -539.000
899.697;  -73.725;   90.000;  -43.000
899.940; -162.075; -761.000; -757.000
900.182; -102.500; -335.000; -405.000
900.425;  -90.475; -150.000; -298.000
900.668;  -16.625;  491.000;  350.000
900.911; -113.475; -292.000; -345.000
901.154;  -56.900;  141.000;   -3.000
901.396; -124.150; -407.000; -412.000
901.639; -137.400; -430.000; -496.000
901.882; -180.350; -790.000; -809.000
902.124;  -94.475;  -29.000; -143.000
902.367; -102.325; -315.000; -361.000
902.609; -141.075; -476.000; -453.000
902.852;  -83.400; -108.000; -260.000
903.094; -120.525; -458.000; -337.000
903.337;  -47.075;  -26.000;   53.000
903.579; -105.800; -228.000; -441.000
903.821; -149.975; -597.000; -744.000
904.064;  -54.850;   85.000;  127.000
904.306;  -73.450; -126.000; -166.000
904.548; -101.375; -152.000; -366.000
904.790; -104.900; -195.000; -340.000
905.033; -126.650; -625.000; -577.000
905.275; -120.175; -513.000; -524.000
905.517;   49.050;  468.000;  256.000
905.759;   -2.250; -667.000; -761.000
906.001;  -87.525; -322.000; -369.000
906.243;  -40.775; -162.000; -224.000
906.485;  174.950; -265.000; -207.000
906.727;  276.675; -499.000; -542.000
906.969;    0.150;  -30.000; -135.000
907.211;  215.750; -316.000; -382.000
907.453;  482.800; -188.000; -237.000
907.695;  108.875; -158.000; -385.000
907.936;   48.050;  818.000;  706.000
908.178;  -45.775;   92.000; -135.000
908.420;  -66.625; -111.000; -162.000
908.662; -126.650; -633.000; -682.000
908.903;  -82.875; -208.000; -123.000
909.145;  -71.250; -240.000; -305.000
909.386;    2.450;  315.000;  280.000
909.628;   46.100;  363.000;  397.000
909.870;    8.525;   29.000;  264.000
910.111;  -80.650; -809.000; -949.000
910.353;    7.575; -123.000; -161.000
910.594;   21.850; -574.000; -606.000
910.835;   94.925; -265.000; -326.000
911.077;  177.200; -503.000; -604.000
911.318;  306.775; -505.000; -471.000
911.559;  479.975; -577.000; -880.000
911.801; 1217.375; -284.000; -280.000
912.042; 8845.900;  -50.000; -159.000
912.283;28633.050;  404.000;  371.000
912.524; 6155.400; -396.000; -457.000
912.765;  619.200; -193.000;   79.000
913.006;  288.475; -307.000; -338.000
913.247;   78.125; -270.000; -290.000
913.488;   -2.325;  -43.000;   30.000
913.729;  -79.175; -373.000; -373.000
913.970;  -52.600;  -96.000; -292.000
914.211;  -57.875; -160.000; -198.000
914.452;  -53.275; -118.000;  -11.000
914.693;    7.625;  510.000;  592.000
914.934;   23.675;  510.000;  440.000
915.175;  -63.400;   53.000;  -95.000
915.415;  -59.850; -137.000;   27.000
915.656;  -66.850;  -28.000;  192.000
915.897;  -82.225; -252.000;  -82.000
916.137;  -56.800;   74.000;   -9.000
916.378; -118.325; -573.000; -517.000
916.619;  -88.450; -159.000;  -63.000
916.859;  -29.550;  303.000;  330.000
917.100;  112.050; 1655.000; 1070.000
917.340;   47.725;  930.000;  728.000
917.581;   43.850;  965.000;  789.000
917.821;   -7.325; -171.000;  143.000
918.061;   59.325; -199.000;  -72.000
918.302;  -31.175; -152.000; -211.000
918.542;   -8.950;  -22.000;    3.000
918.782;   64.725;  369.000;  377.000
919.023;  172.425;  360.000;  427.000
919.263; 1886.875; 8131.000;  202.000
919.503; 1835.025; -137.000;  -54.000
919.743;  946.050;  390.000;  266.000
919.983;  509.100; -134.000;  -26.000
920.223;  150.950;  135.000;   14.000
920.463;  186.400;  631.000;  554.000
920.703;  207.075;   84.000;   39.000
920.943;  236.500; -110.000;   90.000
921.183;  329.825; -414.000; -405.000
921.423;  668.175;  307.000;  546.000
921.663;  971.425; -174.000; -257.000
921.903; 1952.950;  237.000;  173.000
922.143; 9885.350;  372.000;  389.000
922.383;42008.350;  158.000;  115.000
922.622;19708.025; -120.000;  -15.000
922.862; 2004.275;  796.000;  785.000
923.102;  721.275;  -51.000;   33.000
923.341;  322.525;   59.000;   74.000
923.581;  138.075;  450.000;  360.000
923.821;   43.350;  301.000;  398.000
924.060;   37.600;  351.000;  193.000
924.300;  -32.475;  -16.000; -128.000
924.539;    6.325;  584.000;  473.000
924.779;   24.075;  812.000;  597.000
925.018;  -43.775;  247.000;  353.000
925.257;    7.450;  595.000;  666.000
925.497;  -20.575;  447.000;  412.000
925.736;  -69.625;  -35.000;  102.000
925.975;    7.325;  687.000;  669.000
926.214;   26.175;  907.000;  850.000
926.454;    8.475;  706.000;  757.000
926.693;  -42.125;  419.000;  543.000
926.932;   28.525; 1021.000;  825.000
927.171;   70.200; 1107.000; 1044.000
927.410;   48.325; 1144.000;  967.000
927.649;   14.000;  924.000;  742.000
927.888;   -1.175;  590.000;  564.000
928.127;    5.600;  680.000;  678.000
928.366;   44.825;  842.000;  826.000
928.605;   51.075;  831.000;  737.000
928.844;  255.700; 1451.000; 1393.000
929.083;  850.950;  770.000;  613.000
929.321;  531.575; 1335.000; 1359.000
929.560;  111.825; 1158.000; 1122.000
929.799;   -5.775;  574.000;  475.000
930.038;   79.850; 1025.000; 1394.000
930.276;  -34.400;  334.000;  397.000
930.515;    4.650;  827.000;  681.000
930.753;  -15.350;  614.000;  589.000
930.992;  -21.225;  664.000;  717.000
931.230;    5.275;  847.000;  847.000
931.469;  157.125; 2162.000;  892.000
931.707;   70.200;  840.000;  751.000
931.946;   61.675; 1278.000; 1344.000
932.184;   85.500; 1437.000; 1175.000
932.423;   50.000; 1265.000;  963.000
932.661;   95.550; 1296.000; 1428.000
932.899;   31.850;  987.000;  821.000
933.137;   29.875;  754.000;  564.000
933.376;  182.350; 1664.000; 1335.000
933.614;  204.925; 1759.000; 1196.000
933.852;   64.525; 1357.000; 1171.000
934.090;  126.250; 1722.000; 1747.000
934.328;  124.350; 1252.000; 1457.000
934.566;  131.650; 1431.000; 1110.000
934.804;  172.050; 1263.000; 1309.000
935.042;  560.625; 1861.000; 1850.000
935.280; 2195.800; 2088.000; 2063.000
935.518; 2661.825; 2113.000; 2007.000
935.756;  546.000; 2481.000; 2316.000
935.994;  227.550; 1808.000; 1751.000
936.231;  400.400; 2890.000; 2950.000
936.469;  206.725; 2367.000; 2378.000
936.707;  156.850; 2220.000; 2167.000
936.945;  244.875; 2825.000; 2882.000
937.182;  208.575; 2679.000; 2741.000
937.420;  314.375; 3602.000; 3031.000
937.657;  451.125; 3365.000; 3478.000
937.895;  405.825; 3331.000; 3488.000
938.133;  307.175; 3540.000; 3528.000
938.370;  332.625; 3896.000; 4191.000
938.607;  372.825; 4488.000; 4205.000
938.845;  531.725; 5587.000; 5549.000
939.082;  483.025; 5387.000; 5177.000
939.320;  515.900; 5799.000; 5728.000
939.557;  640.700; 6549.000; 6491.000
939.794;  729.025; 7285.000; 7097.000
940.031;  932.275; 8421.000; 8368.000
940.269; 1176.125; 9552.000; 9107.000
940.506; 1165.975;10901.000;10507.000

