
Integration time [ms]: 100.000
Averaging Nr. [scans]: 40
Smoothing Nr. [pixels]: 0
Data measured with spectrometer [name]: 2101013U2
Wave   ;Sample   ;Dark     ;Reference
[nm]   ;[counts] ;[counts] ;[counts] 

394.013;   58.721; -450.257; -315.536
394.305;  165.619; -461.258; -419.536
394.596; 1113.238; -676.269; -527.514
394.887; 2818.955; -796.268; -654.518
395.178; 1101.312;  145.736;   11.476
395.470;   82.748; -210.263; -356.526
395.761;  190.246;  305.734;  394.479
396.052;  199.085; -545.284; -306.489
396.343;  207.807; -557.276; -454.503
396.634;   88.300; -200.279; -290.497
396.926;   95.253; -618.268; -565.517
397.217;  117.161;   11.725;  -17.504
397.508;   36.353; -366.273; -154.507
397.799;   26.025; -555.279; -571.497
398.090;    1.344; -973.280; -902.495
398.381;  116.309;   11.708;  -11.473
398.672;   -3.940; -585.292; -742.473
398.963;   38.131; -348.279; -373.498
399.254;  116.044;   54.709; -209.475
399.545;  -31.158;-1017.266; -883.520
399.836;   54.346; -407.277; -343.501
400.127;   48.959; -205.295; -209.468
400.418;   50.872; -423.274; -392.506
400.709;   62.931; -359.281; -333.493
401.000;   48.423; -268.291; -309.476
401.290;   98.345;  225.698;  115.545
401.581;   62.618; -166.286; -228.485
401.872;   30.256; -542.298; -486.462
402.163;   70.352; -313.296; -252.467
402.454;   85.770; -123.291; -163.475
402.744;   73.043; -844.297; -813.465
403.035;  407.925; -226.293;  -86.471
403.326;  534.888; -366.292; -384.474
403.617;  373.700;  204.701;  165.539
403.907;  257.391; -593.283; -679.490
404.198; 2510.298; -545.307; -599.446
404.489; 6433.421; -618.283; -588.491
404.779; 2108.048; -618.302; -660.456
405.070;  223.551;  -67.304; -174.451
405.360;  349.077; -259.293; -238.472
405.651;  394.910;  125.699;   98.542
405.942;  170.813;  209.714;  127.516
406.232;  236.428; -432.285; -413.487
406.523;  438.944;  641.706;  758.530
406.813;   75.115; -579.286; -644.484
407.104;  304.383;  261.708;  144.527
407.394;  167.526; -604.299; -591.462
407.685;  154.802;  336.715;  222.513
407.975;   63.020; -400.283; -382.490
408.265;  118.635; -134.289; -190.478
408.556;   79.767; -472.291; -459.475
408.846;  165.345;  474.706;  429.530
409.137;  102.368;   -1.288; -216.480
409.427;   56.577; -193.285; -271.487
409.717;   37.006; -776.273; -692.508
410.007;  144.496;    4.715; -170.486
410.298;   99.012; -360.295; -342.469
410.588;   79.725; -495.285; -510.486
410.878;   37.879; -792.287; -873.482
411.168;  115.533; -481.298; -478.463
411.459;  119.614; -295.283; -242.489
411.749;   75.265; -609.292; -507.474
412.039;   63.941; -755.289; -386.480
412.329;  190.888;   40.722;  132.501
412.619;  209.541;  -62.286; -148.485
412.909;  372.062;  639.711;  594.521
413.199;  313.619; -130.280; -251.495
413.490;  393.753;  521.710;  352.523
413.780;  153.948;-1013.279; -913.496
414.070;  326.433;  -46.276;  235.497
414.360;  370.434; -729.278; -666.498
414.650;  417.675; -726.288; -688.482
414.940;  543.498; -538.280; -441.496
415.230;  920.272;   50.712;   74.519
415.520; 6325.987;  155.730;   66.486
415.809;24679.355; -305.281; -125.493
416.099;19418.873; -388.277; -229.501
416.389; 5346.770;  435.726;  236.494
416.679; 3177.602;   91.738;   85.473
416.969;  530.384; -527.287; -503.483
417.259;  611.975;  341.721;  171.503
417.549;  712.554;  522.718;  318.508
417.838; 1704.955; -205.268; -147.518
418.128; 5715.808;  650.710;  492.522
418.418; 4785.962; -491.272; -579.509
418.708; 3208.595;    9.726;  -48.506
418.997;12011.941; -474.275; -480.505
419.287;12669.652; -733.273; -790.507
419.577;11927.639; -160.283; -123.489
419.866;39103.346; -588.277; -498.501
420.156;40011.708; -242.270;  -55.513
420.446; 7275.144; -112.263;  -26.526
420.735;  854.327; -376.271; -446.512
421.025;  849.734; 1830.722;  315.502
421.314;  685.800; -203.271; -226.512
421.604; 1305.897;   89.732;  233.484
421.893;  779.447; -705.271; -602.511
422.183;  234.944; -487.263; -461.526
422.472;  368.948;  -36.271; -107.511
422.762;  428.523; -416.266; -379.521
423.051;  249.533; -916.276; -916.503
423.341;  301.329; -491.273; -439.507
423.630;  408.604; -121.265;   15.477
423.919;  384.440;   58.725;   49.495
424.209;  374.575;  -31.263;   56.473
424.498;  495.452;   68.732;  161.483
424.787; 1105.909; -535.267; -601.518
425.077; 3351.003;   34.735;   29.478
425.366; 4596.381; -734.262; -744.528
425.655;10026.379;  639.727;  259.493
425.945;22286.087; -313.247; -268.554
426.234;12588.329;  117.741;  300.467
426.523; 5227.634;  -86.259; -350.534
426.812; 7284.969;  107.734;  159.480
427.101;10524.344; -127.269; -323.515
427.390;13217.912;  -55.270;  -86.514
427.680; 2879.954; -624.257; -411.538
427.969;  488.140; -330.255; -301.540
428.258;  322.671; -385.257; -477.536
428.547;  521.517;  449.728;  397.490
428.836; 1135.232; -421.253; -398.543
429.125; 1659.436; -199.259;  -72.534
429.414;  786.280; -330.251; -294.548
429.703; 3217.630; -231.251; -213.548
429.992; 9699.008; -938.250; -828.549
430.281; 6402.612; -397.264; -331.524
430.570;  598.420;  -21.252;   32.454
430.859;  524.433;  279.741;  352.466
431.148;  452.408;  636.752;  631.446
431.437;  305.820;  391.748;  367.454
431.725;  151.647; -544.257; -481.536
432.014;  131.189; -845.253; -756.545
432.303;  383.810; -149.239; -105.569
432.592;  580.694; -460.263; -178.525
432.881; 1099.034; -601.248; -437.554
433.169; 6482.491; -343.255;  -61.540
433.458;13074.720;  445.765;  540.424
433.747; 5523.361; -397.261; -289.529
434.036;  899.911; -275.242; -280.564
434.324; 2154.521; -395.249; -379.551
434.613; 3739.354;   40.757;  159.437
434.902; 1282.575;  333.760;  439.433
435.190;  565.609;   75.761;  295.431
435.479;  294.560;  -52.245;   83.441
435.767;  107.969; -411.244; -427.561
436.056;  210.881; -340.242; -294.563
436.345;  392.928; -372.240; -223.568
436.633;  399.991;   60.750;  383.450
436.922;  276.430;  208.760;  414.432
437.210;  566.160; -194.236;    1.426
437.499; 1737.868; -583.235; -432.576
437.787; 1944.509; -339.236;  -10.574
438.075;  489.540;   56.761;  162.430
438.364;  640.367;  -44.238;  250.429
438.652;  401.524; -286.226; -138.592
438.941;  139.863;    3.770;  269.415
439.229;   13.317; -665.252; -466.545
439.517;   40.151; -160.234;  -85.577
439.806;    6.990; -501.225; -290.595
440.094;  178.134;  377.766;  650.421
440.382;  145.288; -653.233; -302.580
440.670;  195.742; -361.235; -285.576
440.959;   24.358; -347.223; -170.599
441.247;   55.674; -151.229; -109.587
441.535;  102.825; -266.235;   31.423
441.823;   33.956; -497.234; -305.578
442.111;  179.454;  173.771;  327.412
442.400;  498.385; -628.245; -335.559
442.688; 1275.909; -111.234; -620.579
442.976;  918.448; -786.213; -450.617
443.264;  114.247; -324.224; -364.597
443.552;   89.800; -258.226;   51.408
443.840;  170.623;  602.765;  876.423
444.128;  112.637;  265.767;  269.420
444.416;   18.931; -694.228; -312.588
444.704;   16.438; -465.219;  -92.605
444.992;   81.028;   -0.226;  240.407
445.280;   40.313; -517.230;  -94.585
445.568;   26.151; -694.212; -396.618
445.856;  313.047; -174.221;  357.398
446.143;  678.785;  -54.220;   -7.604
446.431;  577.035;  -25.228;  625.411
446.719;  226.108;  489.783;  675.391
447.007;  177.308;  481.769;  705.416
447.295;  183.555;  597.777;  871.402
447.583;   86.872; -464.229;  -34.587
447.870;  158.219; -434.221; -202.601
448.158;  384.112; -104.230;  129.415
448.446;  283.736; -800.219; -338.604
448.733;  162.774;   13.776;  269.403
449.021;  236.776;   60.788;  341.382
449.309;  176.691; -296.210;  208.379
449.596;  226.554;  128.783;   59.392
449.884;  152.812; -571.222; -325.600
450.172;  160.565; -756.227; -406.590
450.459;  463.281;  645.786;  780.387
450.747; 2458.578; -411.218; -147.608
451.034; 7939.611;  493.772;  889.411
451.322; 6680.434; -413.214; -170.614
451.609;  563.675;  292.777;  508.403
451.897;  616.856; -550.203; -183.634
452.184; 1863.805; -622.223; -400.598
452.472; 1737.338;   97.792;  269.375
452.759;  322.386;  512.781;  864.395
453.047;  115.598; -407.212; -125.617
453.334;   41.744; -732.219; -216.606
453.621;   57.486; -438.214; -161.615
453.909;  118.522;   13.796;  384.368
454.196;  111.769; -299.199; -123.641
454.483;  222.494;  317.798;  540.364
454.771;  141.041; -215.208;  196.374
455.058;   42.545; -316.207;  102.374
455.345;  108.550;   71.807;  344.347
455.632;  107.548; -128.207;  235.373
455.919;   48.492;  -82.196;  182.354
456.207;  -59.827; -774.198; -450.642
456.494;  -12.144; -475.200;  -66.639
456.781;   12.564; -399.202; -198.635
457.068;   64.355; -253.206;  -29.628
457.355;   -6.519; -698.206; -401.629
457.642;   -2.464; -552.205; -290.630
457.929;    1.291; -778.194; -417.651
458.216;   75.599; -575.212; -354.617
458.503;  258.846; -173.193;  -19.652
458.790;  255.339; -864.208; -630.625
459.077;  302.794;  -77.202;  110.364
459.364;  823.434; -350.195; -210.649
459.651; 1776.577;  -46.206;  220.372
459.938;  822.454; -864.209; -665.623
460.225;  142.073;  132.799;  276.363
460.512;  -43.986; -836.197; -688.645
460.799;  111.976;  -32.218;  320.392
461.086;   94.286; -370.200; -251.640
461.372;   40.699; -509.198; -279.642
461.659;  111.943; -165.196;  108.354
461.946;   56.594; -445.193;  -54.651
462.233;  241.333;  842.800;  888.361
462.519;  370.155; -814.201; -464.639
462.806; 1041.714; -768.197; -497.645
463.093;  915.140; -445.191;  -66.656
463.380;  -23.493; -920.186; -824.664
463.666;   52.641; -259.197;  -18.646
463.953;  102.578; -406.195; -243.648
464.239;  196.153; -173.195;  -77.648
464.526;  396.914;  413.806;  743.350
464.813;  335.627; -565.190; -304.658
465.099;  359.170;  606.807;  607.348
465.386;  344.549;  903.807;  921.348
465.672;   21.714; -694.197; -522.645
465.959;   29.470; -598.188; -520.662
466.245;   10.324; -468.193; -359.652
466.532;   80.626; -109.195;   63.352
466.818;   69.307; -357.186; -216.664
467.104;   -9.602; -488.182; -415.672
467.391;  -23.171; -628.189; -459.658
467.677;   28.861; -289.186;    9.335
467.964;   -4.339; -682.189; -471.660
468.250;   46.263; -331.186; -160.665
468.536;   93.530;   90.811;  180.341
468.822;  -30.624; -821.184; -574.668
469.109;  151.180;  351.827;  471.311
469.395;  194.334;  729.808;  787.346
469.681;  204.058;   46.811;  156.341
469.967; 1279.413; -699.188; -382.660
470.254; 2769.371; -494.188; -306.662
470.540; 1785.291; -601.196; -476.646
470.826;  269.609; -488.181; -397.675
471.112;  317.479;  288.816;  113.331
471.398;   96.734; -253.183;  -58.670
471.684;   27.863; -626.177; -447.680
471.970;    7.363; -918.180; -981.675
472.256;   35.458; -521.192; -441.654
472.542;   17.767; -499.171; -434.691
472.828;   29.444; -743.182; -607.672
473.114;   30.461; -380.166; -283.700
473.400;    7.430; -504.175; -293.684
473.686;   33.092; -452.166; -400.701
473.972;   50.220; -230.174; -131.687
474.258;  -38.295; -925.173; -843.689
474.544;  214.330; -183.178;   -2.679
474.830;  335.257;  -65.175;   45.316
475.116;  527.204; -123.190; -196.658
475.401;  715.116; -558.180; -467.676
475.687;  216.890; -725.180; -718.676
475.973;    1.277; -673.181; -770.673
476.259;  256.784;  736.825;  764.315
476.544;  395.946; -539.176; -437.682
476.830;  872.437; -398.172; -322.690
477.116;  792.570; -430.177; -336.682
477.401;  151.990;  346.820;  358.324
477.687;  -19.270; -289.175; -405.684
477.973;   42.981;   21.819;   28.326
478.258;   -9.737; -448.163; -348.706
478.544;   46.869;   21.815;   61.334
478.829;  -56.903; -818.171; -738.692
479.115;  -42.113; -749.172; -651.690
479.401;   -2.560; -444.174; -449.686
479.686;   44.214; -253.180;  -74.676
479.972;  -27.115; -886.178; -776.680
480.257;   33.262; -258.166;  -65.700
480.542;    6.201; -614.170; -469.693
480.828;  242.953; 1288.824; 1392.317
481.113;  -30.549; -464.176; -426.683
481.399;   -6.563; -236.161; -202.711
481.684;  -61.563; -620.166; -462.700
481.969;   23.526; -158.159;  -73.713
482.255;    5.662; -439.169; -285.695
482.540;    3.860; -569.178; -441.680
482.825;   19.027; -395.187; -404.663
483.110;  105.390;  -85.169; -105.696
483.396;  214.973; -840.157; -652.718
483.681;  528.995;  543.826;  730.313
483.966;  165.070; -696.160; -700.712
484.251;   -9.731; -404.174; -310.687
484.536;    8.373; -356.165; -378.703
484.822;   24.797; -205.173; -218.687
485.107;  -21.513; -599.152; -502.726
485.392;  133.654;  662.836;  541.296
485.677;   81.100;  354.832;  163.302
485.962;   97.471;  160.843;  270.283
486.247;  102.371;  -14.162;   -8.707
486.532;   33.989; -178.166; -325.701
486.817;  173.332;  381.839;  431.291
487.102;  111.395; -453.154; -514.722
487.387;  703.200; -637.156; -652.718
487.672; 1241.159; -154.164;  -38.705
487.957;  810.439; -394.160; -286.711
488.241;  239.954; -290.150; -314.729
488.526;  791.914; -280.152; -148.726
488.811; 1246.012; -881.177; -818.680
489.096;  970.448; -666.154; -702.723
489.381;  512.585;    3.847;  162.275
489.666;  399.262; -428.161; -510.710
489.950;  189.451;  558.846;  627.277
490.235;  -16.826; -480.151; -458.728
490.520;  -39.414; -756.161; -723.710
490.804;  -48.373; -827.156; -736.719
491.089;    6.995; -469.149; -299.732
491.374;   35.182; -132.164;  -75.704
491.658;  -11.868; -817.147; -717.735
491.943;  164.818; -657.152; -609.727
492.227;  243.816; -178.155;  -38.721
492.512;   60.070; -294.157; -341.717
492.797;  -73.786; -713.149; -716.731
493.081;  -46.540; -588.147; -598.735
493.366;  -30.912; -751.161; -635.711
493.650;  220.389;  831.859;  917.254
493.935;   39.606; -648.147; -447.734
494.219;  -37.999; -778.142; -687.743
494.503;  -44.066; -585.150; -487.730
494.788;   68.962;   46.842;   74.285
495.072;  109.155;  184.850;  434.271
495.356;  182.723; -463.148; -343.733
495.641;  457.341; -812.146; -736.736
495.925;  453.382; -976.156; -903.719
496.209;   24.395; -599.149; -451.732
496.494;  -47.124; -763.142; -544.744
496.778;   15.470; -364.154; -360.722
497.062;  -37.018; -819.156; -627.719
497.346;  -19.209; -869.160; -640.711
497.631;  156.477;  580.852;  560.266
497.915;   72.902;  -64.145;  175.261
498.199;   44.023; -341.157; -277.718
498.483;   43.412; -562.152; -508.725
498.767;  186.807;  301.850;  300.271
499.051;  195.017; -126.149; -100.732
499.335;   32.965; -693.149; -739.731
499.619;  -31.283; -381.129; -423.767
499.903;   18.389; -272.155;  -65.721
500.187;   14.102; -588.153; -316.724
500.471;   24.517; -796.152; -595.727
500.755;  103.262;   62.839;  -96.710
501.039;   24.440; -270.155; -357.721
501.323;   86.891;  -21.141;  264.254
501.607;   27.589; -447.163; -503.706
501.891;  -13.950; -607.156; -512.718
502.174;  -33.836; -726.144; -585.741
502.458;   56.346;   89.849;  370.273
502.742;   60.440; -180.138; -191.751
503.026;  120.831; -412.147; -254.734
503.310;  190.450; -437.159; -375.713
503.593;  119.533; -464.147; -325.735
503.877;  125.681; -232.133; -156.760
504.161;  156.030;    2.847;  -50.724
504.444;  144.614; -841.158; -710.716
504.728;  484.482; -487.164; -522.704
505.012;  757.928; -257.150;  -76.729
505.295;  562.663; -417.161; -212.711
505.579;  559.357; -256.156; -496.719
505.862;  818.948; -555.145; -333.738
506.146;  770.128; -681.159; -758.714
506.429;  416.478;  568.841;  461.286
506.713;   76.625; -732.151; -667.728
506.996;  331.169;   90.846;  295.278
507.280;  361.152; -633.165; -474.703
507.563;  257.813; -469.155; -261.721
507.847;  118.703; -423.153; -112.724
508.130;  103.163; -665.161; -456.711
508.413;  122.583; -758.167; -577.700
508.697;  258.233; -151.167;   12.300
508.980;  167.479; -422.153; -312.724
509.263;   -4.066; -466.155; -450.720
509.547;   34.103; -124.150;   82.271
509.830;   50.765; -172.160;  140.289
510.113;   88.956;  128.844;  298.281
510.396;   30.185; -530.152; -300.725
510.680;  149.400; -818.145; -812.738
510.963;  580.674;  184.846;  180.277
511.246;  476.661; -493.150; -357.730
511.529;  270.355; -482.145;  -83.739
511.812;  388.528; -250.134;   10.241
512.095;  287.998; -740.151; -396.728
512.378;   83.462; -317.147; -245.736
512.661;   33.348; -703.137; -623.753
512.944;   31.228; -750.142; -637.744
513.227;   72.195; -170.137; -171.752
513.510;   35.863; -479.144; -671.741
513.793;   25.645; -485.140; -435.747
514.076;  142.363;  -43.127;  -39.771
514.359;  125.820; -294.149; -135.732
514.642;   81.181; -442.142; -567.744
514.925;  770.218;  581.860;  561.253
515.208; 1039.824; -498.134; -443.758
515.491;  672.838; -276.133; -182.761
515.773;  394.267; -410.143; -337.742
516.056; 2179.154;  249.864;  409.246
516.339; 2891.433; -754.136; -652.755
516.622; 1872.934; -518.150; -488.730
516.904; 1147.799;  882.857;  975.257
517.187;  505.344; -730.138; -523.752
517.470;  400.448; -568.143; -510.743
517.752;  452.761; -624.136; -470.756
518.035;  367.756; -708.139; -725.749
518.318;  380.808; -799.136; -744.755
518.600; 2513.767; -300.132; -325.762
518.883; 3428.505;  310.858;   88.256
519.165; 1677.936; -585.138; -426.751
519.448;  383.091;  -61.132;  -19.762
519.730;  211.571; -573.126; -415.773
520.013;  315.784;  588.867;  664.240
520.295;  763.604;  -94.134;  -15.759
520.578; 1670.205; -335.131; -305.764
520.860; 1920.341; -254.132;   56.238
521.143; 1033.138; -763.135; -584.756
521.425;  499.834; -251.125; -279.775
521.707;  697.514; -622.127; -380.771
521.990; 1885.464; -199.127;  167.229
522.272; 2104.922; -116.140;   -4.748
522.554;  952.718; -237.143; -157.742
522.836;  345.852;  -24.134;   99.241
523.119;  226.355; -496.148; -189.734
523.401;  163.087; -448.130; -314.766
523.683;  104.198; -865.137; -693.753
523.965;  297.692;  408.862;  260.248
524.247;  305.706;   54.878;  170.220
524.529;  219.029; -451.134; -367.759
524.812;  378.638;   -3.130;  191.234
525.094;  897.616; -773.138; -631.751
525.376; 1432.418; -143.124;   78.223
525.658;  876.230; -441.136; -339.754
525.940;   25.076; -805.131; -671.764
526.222;   32.409; -188.136;  -88.755
526.504;  109.474; -190.131;   32.237
526.786;  146.907; -960.133; -647.760
527.068;  284.524; -124.123;  -67.778
527.349;   99.052; -865.137; -774.754
527.631;  125.716; -137.132;   22.238
527.913;  149.213; -664.127; -450.771
528.195;  184.552; -761.125; -639.774
528.477;  261.949;  -93.134;  -30.758
528.759;  147.463; -648.130; -522.766
529.040;   56.573; -569.123; -293.778
529.322;   57.555; -235.125;  -10.774
529.604;  143.066;  -47.130;   93.233
529.886;  119.271; -546.126; -302.773
530.167;  115.957;  232.870;  192.235
530.449;   47.911;    1.853;   63.265
530.731;    5.480; -572.122; -459.779
531.012;   69.326; -513.120; -216.784
531.294;   82.641; -118.116;  -43.792
531.575;  169.909;  290.875;  538.225
531.857;   68.319; -548.135; -266.757
532.138;   98.864; -113.141;   40.254
532.420;  165.115;  294.865;  403.244
532.701;  179.434; -722.133; -751.760
532.983;  324.337;  232.867;  182.239
533.264;  107.694; -243.126;  175.228
533.546;  -33.116; -491.136; -508.755
533.827;   52.031;  173.867;   -1.759
534.109;   52.744; -352.135;  -80.757
534.390;   90.645; -725.132; -582.762
534.671;  264.965; -270.135;  -82.756
534.953;  152.100; -751.123; -611.779
535.234;   19.025; -426.117; -255.789
535.515;  -82.816; -891.119; -735.785
535.796;  -17.266; -431.128; -193.770
536.078; -119.807;-1050.124; -904.777
536.359;   -1.874;  -22.123;    3.221
536.640;  -13.397; -480.125; -197.774
536.921;  165.646;  225.871;  143.232
537.202;  387.313;  -87.138;  -16.751
537.483;  478.704;  251.869;  377.236
537.764;  197.357;   17.870;   98.235
538.045;  -39.702; -543.134; -371.758
538.326;  -26.377; -596.129; -447.768
538.607;   21.840; -686.127; -476.771
538.888;  196.592;   98.879;    5.218
539.169;  190.686; -704.122; -535.781
539.450;  344.270;  236.871;   16.233
539.731;  224.771; -361.121; -182.783
540.012;  134.051;  199.880;  412.216
540.293;  101.387;   82.876;  158.224
540.574;   17.387; -895.113; -717.796
540.855;  451.794;  435.879;  377.218
541.136;  535.034;   47.878;  139.220
541.416;  294.964; -161.130; -220.766
541.697;  212.874; -274.131; -170.763
541.978; 1098.292; -270.135; -315.757
542.259; 1391.414; -211.127; -236.771
542.539;  665.109; -191.116; -186.790
542.820;  184.359;  461.875;  480.225
543.101;  123.026;  -52.145;  -77.738
543.381;   21.414; -638.127; -591.771
543.662;  264.237;  159.873; -254.771
543.942;  616.010; -751.127; -830.770
544.223; 1085.635;  193.878;  161.219
544.504;  719.718; -275.124; -182.777
544.784;  621.145; -592.126; -408.773
545.065; 1702.563;  104.884; -254.791
545.345; 2003.710;  227.881;   14.215
545.626; 1353.161;  -14.113; -108.796
545.906;  923.132;   77.869;   98.235
546.186;  380.300;   92.874;  -95.773
546.467;  223.145;   99.877;  -95.778
546.747;  332.934;  264.884;  327.210
547.027;  402.416;   91.876;  111.223
547.308;  351.109; -376.127; -530.770
547.588;  417.898;  299.871;  371.232
547.868;  221.183;  458.870;  588.235
548.149;  206.321;  609.885;  593.207
548.429;  136.412; -347.127; -299.771
548.709;  218.551; -645.120; -461.784
548.989;  505.594;   84.882;   88.213
549.269; 2287.365;   10.868;  139.239
549.550; 5014.474;  215.877;  117.222
549.830; 4515.079; -758.111; -556.799
550.110;  942.362; -468.110; -320.801
550.390;  893.155; -128.122;  -56.779
550.670; 1209.757; -868.114; -783.795
550.950;  871.219; -509.121; -471.782
551.230;  204.915;  549.879;  460.218
551.510;    0.093; -381.121; -326.782
551.790;   34.995; -173.109; -127.803
552.070;  285.520;  940.877; 1181.223
552.350;  419.114; -492.119; -377.786
552.630;  619.513;   -2.121;   77.219
552.909;  390.464;  181.884;   73.209
553.189;  248.396;  -49.132;   33.237
553.469;  221.963; -703.119; -514.786
553.749;  195.966; -469.127; -357.772
554.029;  167.205;   33.883;  -24.790
554.308;  159.250; -154.115;  -37.794
554.588;   68.633; -196.128; -204.770
554.868;   75.220; -366.121;  -47.782
555.147;  152.847; -114.115;  -46.793
555.427;  641.291; -260.116; -250.792
555.707; 4033.845; -284.115; -200.793
555.986; 4834.958; -719.111; -538.800
556.266; 2598.533;   23.884;   72.210
556.546;  125.018; -888.121; -675.782
556.825;  276.105; -657.114; -556.794
557.105; 1849.131; -125.128;   17.230
557.384; 2192.688;  122.884;  187.209
557.664;  847.440; -717.116; -508.792
557.943;  118.869; -557.121; -411.782
558.222;  187.447; -345.118; -344.788
558.502;  285.799; -116.115;  -76.793
558.781;  505.519;  194.885;  499.208
559.061;  425.897; -232.118; -227.788
559.340;  330.877;  302.883;  353.211
559.619;  740.958;   93.884;  148.210
559.899; 1095.629; -239.117; -266.789
560.178; 1000.623; -778.115; -593.793
560.457; 3255.831; -623.117; -562.790
560.736; 4470.409; -472.111; -482.800
561.015; 3009.828; -500.128; -502.769
561.295;  414.715;  180.893;  215.193
561.574;  356.746;  119.885;  116.207
561.853;  520.174;  274.891;  303.197
562.132;  531.926;  -45.114;  182.206
562.411;  467.138;  396.879;  553.219
562.690;  131.769; -592.115; -458.792
562.969;  165.293;  472.888;  630.203
563.248;  515.336; 2966.878; 2487.219
563.527;  297.158; -290.111; -408.800
563.806;  417.137; -650.127; -521.771
564.085;  466.156; -297.105; -206.810
564.364;  271.657; -594.117; -405.790
564.643;  538.489; -276.121; -223.781
564.922; 1949.743;  221.890;  397.198
565.201; 1914.647; -640.109; -700.803
565.479;  830.492; -297.115; -219.792
565.758;  344.731; -810.128; -712.770
566.037;  488.673; -155.109; -100.803
566.316;  250.963; -286.116;  -28.791
566.595;   48.770;  -17.115;  -12.793
566.873;  101.360; -166.111;  -79.801
567.152;  -56.707; -490.113; -590.797
567.431;   17.134; -113.116;    6.210
567.709;   21.940; -344.107; -212.807
567.988;  289.829; -810.114; -769.794
568.266;  579.420; -160.115;  -68.793
568.545;  427.378; -644.100; -514.819
568.824;  623.392;  160.885;  356.208
569.102;  601.104; -351.114; -235.794
569.381;  247.091; -492.116; -407.792
569.659;  -31.436; -553.113; -553.796
569.938;   35.859; -743.122; -465.780
570.216;  125.826; -225.109; -225.804
570.494;  -25.793; -632.114; -572.795
570.773;   42.193;  202.879;  114.218
571.051;   -0.702; -373.123; -357.778
571.330;   71.787; -221.113; -174.796
571.608;   49.847; -181.098; -173.823
571.886;  -73.223; -671.111; -581.799
572.164;  -74.880; -739.121; -621.782
572.443;  -41.991; -562.105; -512.811
572.721;  -26.094; -399.117; -289.790
572.999;  -21.476; -280.117; -168.788
573.277;   98.228;  379.894;  620.191
573.555;  330.855;   94.894;   37.190
573.834; 1389.974;  -86.117; -114.788
574.112; 1615.568;  880.893;  811.193
574.390;  512.709; -143.111;  -96.801
574.668;    3.194;  -91.112;  -61.797
574.946;  -13.645; -165.106; -187.810
575.224;   12.422;   71.891;  -16.803
575.502;  -30.864; -200.116; -204.791
575.780;  -79.930; -767.112; -829.798
576.058;  216.758; 1589.889; 1004.200
576.336;   -8.836; -210.110; -129.801
576.614;  -58.580; -511.112; -340.798
576.891;   74.175; -711.115; -823.794
577.169;  512.259; -158.108; -285.805
577.447;  612.542;  169.893;  202.193
577.725;  282.175;  629.888;  854.201
578.003;   40.448;  -71.112; -371.798
578.280;   98.343; -208.104; -242.812
578.558;   56.274; -450.115; -422.793
578.836;  114.832; -210.114; -145.795
579.114;   57.844; -630.112; -670.797
579.391;   56.251;   -6.117;  -18.789
579.669;  -70.999; -595.114; -704.794
579.947;  172.714; -326.107; -127.806
580.224;  331.714; -692.107; -524.806
580.502;  330.568;  127.893;   76.193
580.779;   31.907;  -42.117;   75.210
581.057;  -78.824; -584.109; -470.804
581.334;  -95.941; -726.102; -695.815
581.612;   39.756;   54.895;  511.190
581.889;  -34.903;  -83.101; -129.818
582.167;  -34.563; -298.099; -190.821
582.444;  -93.758; -845.102; -814.817
582.721;   95.167;  657.899;  715.183
582.999;   46.784; -326.100; -167.821
583.276;  544.352; -812.123; -713.779
583.553;  746.037; -364.102; -294.816
583.831;  241.765; -607.104; -631.812
584.108;   51.432;  349.892;  174.195
584.385;   12.433; -122.102;  -98.815
584.662;  -64.439; -651.111; -828.801
584.940;   37.235;  204.889;  204.199
585.217;  -10.611;  -73.113; -303.796
585.494;   41.394;   71.890;  118.198
585.771;  216.027; -250.109; -354.804
586.048;  521.638; -196.113;  -76.796
586.325;  340.463; -721.110; -773.801
586.602;   99.244;  230.896;  213.188
586.879;   -3.545; -499.100; -580.820
587.156;   61.807; -156.105; -331.810
587.433;  -35.985; -701.102; -667.817
587.710;   79.421;  152.888;  234.202
587.987;  316.487; -264.105; -236.811
588.264;  803.023;  315.888;  387.202
588.541; 1423.146;  -61.104;   26.187
588.818; 2737.179;   72.892;  171.196
589.095; 2366.142; -163.104; -174.812
589.371;  401.700; -459.109; -414.804
589.648;   16.693; -581.107; -437.807
589.925;   24.433; -517.114; -621.795
590.202;   13.270; -741.112; -607.798
590.478;   85.689; -166.105;  -73.811
590.755;  284.860; -241.108; -132.806
591.032; 2594.165; -741.110; -699.802
591.308; 3506.787; -732.094; -790.831
591.585; 1819.365; -573.110; -560.802
591.862;  163.391;-1056.102; -950.817
592.138;   61.408; -475.108; -474.805
592.415;  179.170; -486.104; -495.813
592.691; 1531.617;  460.896;  518.188
592.968; 1936.799; -208.098; -123.824
593.244;  944.684; -695.116; -595.790
593.521;   80.466; -105.102;  -42.817
593.797;   -7.844; -810.122; -720.780
594.074;  347.086; -611.096; -588.826
594.350;  671.823;  828.905;  729.172
594.626;  312.136; -303.111; -283.801
594.903;  113.742; -643.101; -645.817
595.179;  205.249;  243.896;  418.187
595.455;    7.919; -136.107; -150.807
595.731;    3.200;  -19.103;  -38.814
596.008;  -36.345; -464.111; -434.800
596.284;   39.683; -187.100; -242.820
596.560;   65.169; -501.093; -493.833
596.836;  210.509; -173.105;  -70.810
597.112;  358.383; -582.108; -437.805
597.388;  301.559;  -49.097;  -48.826
597.665;  117.141;  437.887;  530.203
597.941;  -58.326; -572.089; -658.839
598.217;   12.544; -323.110; -293.802
598.493;  278.403;   61.891; -204.804
598.769;  509.827; -175.100;  -50.819
599.045;  309.861; -490.108; -562.806
599.321;   56.157; -193.100; -261.820
599.597;  150.978; -355.109; -476.804
599.872;  507.321;  409.896;  429.187
600.148;  397.886;  -61.097; -172.826
600.424;  311.466;   91.893;  202.193
600.700;  234.544; -170.107; -280.807
600.976;  133.155; -442.097; -464.825
601.252;  260.249; -226.109; -272.803
601.527;  216.397; -833.104; -840.813
601.803;  153.264; -453.105; -404.812
602.079;  194.452; -124.100; -118.819
602.354;  590.404; -620.092; -531.835
602.630;  861.239; -140.113; -482.796
602.906; 2455.772; -910.101; -863.818
603.181; 6875.888; -627.119; -534.786
603.457; 5865.383;   98.903; -278.826
603.733;  854.697; -605.120; -626.783
604.008; 1061.006; -245.106; -164.810
604.284; 3187.168; -636.101; -580.817
604.559; 2766.950;   -3.112;  -42.799
604.835;  513.484; -163.105; -225.810
605.110;  421.237; -732.099; -892.821
605.385;  699.672;  224.907;  267.167
605.661;  665.750; -625.095; -729.829
605.936; 1192.437; -664.108; -737.806
606.211; 1013.207;  -17.103; -170.815
606.487;  217.828; -329.114; -376.794
606.762;   22.264; -791.119; -745.786
607.037;  -29.591; -501.105; -433.810
607.313;  -47.881; -589.096; -574.828
607.588;   -8.345; -375.106; -137.810
607.863;   56.247;  -28.101; -143.818
608.138;  186.367;  513.890;  516.198
608.413;   29.241; -576.099; -592.822
608.688;   64.158; -203.108; -267.805
608.964;  217.349; -509.106; -218.809
609.239;  254.106; -107.105; -212.810
609.514;  271.289;  281.895;  240.188
609.789;  699.944; -187.104; -716.812
610.064;  915.617; -435.096; -609.827
610.339;  917.975; -855.109; -799.804
610.614; 1208.607; -131.100; -315.820
610.889;  680.414;  215.895;  107.188
611.163;   52.990; -407.104; -591.812
611.438;   79.704;   81.886; -167.794
611.713;    4.293; -467.101; -499.817
611.988;   55.246; -144.101; -328.818
612.263;  -18.866; -771.102; -717.815
612.538;  225.063;  385.887;  251.204
612.812;  184.808; -832.100; -911.820
613.087;  142.971; -358.098; -338.823
613.362;  -47.806; -497.107; -557.807
613.637;   40.678;  261.897;  138.186
613.911;   -8.145; -256.092; -345.835
614.186;  141.292; -249.107; -292.807
614.460;  707.975; -842.081; -758.854
614.735;  791.573;  -55.087;  -17.843
615.010;  169.587;   43.912;  -82.841
615.284;  257.932;  360.892;  246.195
615.559;  387.753; -792.092; -955.835
615.833;  314.864;  -76.099;  -87.822
616.108;   13.340; -225.090; -390.837
616.382;  141.224;  274.913;  402.156
616.656;  162.441; -241.090; -232.837
616.931;  508.215; -785.099; -700.822
617.205; 1113.823; -973.104; -979.813
617.480; 1014.732;  -91.125;    6.225
617.754;  178.404; -396.125; -128.774
618.028;   24.399; -369.129; -382.768
618.302;   73.231;   73.892;  -25.805
618.577;  -55.671; -371.103; -518.815
618.851;  -63.554; -399.109; -600.803
619.125;  -56.471; -335.134; -378.759
619.399;  -29.427; -244.104; -374.813
619.673;  -53.508; -330.115; -515.792
619.947;  -48.818; -333.114; -448.795
620.222;  -20.413; -198.110; -204.801
620.496;    6.644;  -47.121;  -96.782
620.770;   23.611; -187.122;  -93.781
621.044;  208.707;  323.895;  346.190
621.318;  754.997; -653.120; -614.783
621.592;  710.070; -430.121; -409.783
621.866;  362.201; -476.112; -572.799
622.140;   32.936; -207.116; -356.791
622.413;   41.305;  138.889;  112.200
622.687;  -39.981; -746.101; -492.817
622.961;   12.456; -130.108; -143.805
623.235;  -67.619; -633.111; -661.800
623.509;  -97.161; -816.105; -848.811
623.783;   12.190;  -12.107;   48.193
624.056;   -9.252; -254.120; -280.783
624.330;   69.119;   63.888;   -3.797
624.604;   60.207; -271.116; -355.790
624.877;   71.766;  180.890;   26.198
625.151;   41.526; -249.114; -238.794
625.425;  -26.150; -150.103; -283.814
625.698;  -67.842; -367.119; -374.785
625.972;  -99.181; -799.110; -765.802
626.245;   75.709;  685.884;  484.210
626.519;  -42.098; -426.120; -340.784
626.792;  -18.731; -192.107; -380.807
627.066;  -91.796; -485.122; -662.779
627.339;  -95.810; -736.110; -663.802
627.613;   49.401;  351.880;  148.216
627.886;  -58.004;  187.891; -612.803
628.160;  -15.053;  312.880; -161.783
628.433;  -83.040; -695.125; -703.775
628.706;  -76.423; -517.120; -615.784
628.979;   27.866;  296.876;  117.223
629.253;  -80.212; -785.119; -833.786
629.526;  376.844; -334.126; -253.772
629.799;  334.298; -641.123; -479.778
630.072;  166.676; -497.128; -516.769
630.346;  -60.566;-1115.116;-1080.790
630.619;  476.919; -467.107; -545.808
630.892;  632.806;  709.889;  593.200
631.165;  352.973;  790.896;  679.187
631.438;  -83.552;-1092.112;-1055.798
631.711;   52.052;  453.877;  257.221
631.984;  -49.371; -523.117; -624.789
632.257;  -80.549; -636.117; -681.789
632.530;  -40.342; -412.119; -433.785
632.803;   26.574; -109.115;    7.207
633.076;  -80.330; -360.123; -422.777
633.349;    0.180;  173.872;  121.231
633.622;  -41.793; -187.119; -240.785
633.895; -122.877; -903.120; -823.783
634.167;  -46.854; -496.126; -525.773
634.440;   -9.409;  -19.116; -137.792
634.713;   -5.213;  -22.119; -120.786
634.986;   86.570;  593.871;  453.233
635.258;  -63.477; -507.115; -597.793
635.531;   86.447;  742.882; -343.788
635.804;  -21.047; -303.117; -318.789
636.077; -100.638; -830.116; -852.791
636.349;   -6.004; -586.115; -474.793
636.622;  388.868; 1695.874; 1392.228
636.894;  259.928; -474.120; -909.784
637.167;  141.562; -836.127; -789.771
637.439;   31.358; -278.128; -213.770
637.712;  -54.255; -312.126; -293.772
637.984;  -70.088; -635.116; -707.791
638.257;  398.921;  515.877;  488.222
638.529;  573.786; -881.125; -924.776
638.802;  261.051; -508.128; -449.769
639.074; -114.490; -927.122; -952.781
639.346; -124.929; -942.135; -930.757
639.619;    9.329;  -79.142; -319.744
639.891;   -9.746;  -83.122; -168.779
640.163;  -84.069; -689.122; -756.780
640.435;   26.532;  273.878;  103.220
640.708;   18.284;  -72.122; -132.780
640.980;  -22.164; -366.122; -362.781
641.252;  202.913;  -25.121;  -71.781
641.524; 1825.540;  580.879;  573.219
641.796; 1878.167;-1094.121; -907.782
642.068;  327.744; -191.121; -300.782
642.340;  -58.230; -486.121; -566.783
642.613;   47.897;  294.880;  323.217
642.885; -102.651; -787.120; -878.783
643.157;  -50.124; -810.120; -658.784
643.428;   69.603;  170.880;  218.216
643.700;  -76.270; -498.120; -425.784
643.972;  -24.443;  -16.119; -133.785
644.244; -109.666; -474.119; -559.785
644.516;  -53.665; -250.119; -114.786
644.788;   69.312;  662.881;  548.214
645.060;  -17.461;  -12.119; -124.786
645.332; -106.059; -525.118; -535.787
645.603;   30.668;  479.882;  342.213
645.875;  -67.580; -334.118; -369.787
646.147;  172.022; 1487.882; 1242.212
646.418;  -53.452; -931.117; -918.788
646.690;  150.900; -714.117; -715.789
646.962;   38.177; -413.117; -451.789
647.233;   -7.096;   15.883;   11.211
647.505; -102.269; -595.117; -475.790
647.776;   42.708;  328.884;  229.210
648.048;   -6.990; -248.116; -418.790
648.320;  -76.039; -752.116; -679.791
648.591; -164.787;-1055.116; -958.791
648.862;  -91.610; -505.116; -577.792
649.134;    6.892;  115.885;  198.208
649.405;  -45.306; -661.115; -618.792
649.677;  -56.379; -475.115; -598.793
649.948;  -20.127; -181.115; -296.793
650.219;  -17.776;  -37.115; -147.793
650.491;  -79.799; -431.114; -520.794
650.762; -120.947; -705.114; -731.794
651.033;  -73.245; -437.114; -424.795
651.304; -102.493; -743.114; -728.795
651.576;  -64.891; -680.114; -645.795
651.847;  -43.014; -250.113; -140.796
652.118;  -37.613;  -32.113; -189.796
652.389; -103.611; -639.113; -722.796
652.660;  -27.859; -147.113;  -89.797
652.931; -143.532; -897.112; -871.797
653.202;  -87.430; -382.112; -541.798
653.473;  -69.503; -633.112; -533.798
653.744;  148.849; -595.112; -590.798
654.015;  132.176; -356.112; -303.799
654.286;  -65.298; -642.111; -663.799
654.557;  -47.771; -586.111; -521.799
654.828; -152.294;-1114.111;-1088.800
655.099;  -88.542; -404.111; -291.800
655.370;  -90.140; -427.111; -543.801
655.641; -120.138; -656.110; -714.801
655.911; -106.236; -618.110; -638.801
656.182;   58.365;  437.890;  387.198
656.453;  105.267;  830.890;  746.198
656.724;  -85.131; -466.110; -426.802
656.994;  -82.229; -553.109; -568.803
657.265; -102.102; -862.109; -873.803
657.536;  -88.600; -500.109; -377.804
657.806; -106.373; -561.109; -593.804
658.077; -138.672; -866.109; -950.804
658.347;  -91.770; -523.108; -598.805
658.618; -129.793; -646.108; -694.805
658.888;  -16.416;  -41.108;  112.195
659.159;  -74.264; -432.108; -548.806
659.429;  -35.837; -292.108; -349.806
659.700;    7.990; -435.107; -390.807
659.970;  -18.134; -370.107; -359.807
660.241;   32.368; -754.107; -921.807
660.511;  520.095; -147.107; -174.808
660.781;  103.347; -793.106; -748.808
661.052;  -40.376; -222.106; -381.808
661.322;  -25.999;   21.894;   -9.809
661.592;   11.028;  257.894;  148.191
661.862;  -84.321; -369.106; -382.810
662.133; -103.769; -551.105; -502.810
662.403; -125.667; -770.105; -676.810
662.673;  -58.815; -256.105; -213.811
662.943; -114.363; -612.105; -551.811
663.213;   -1.336;  -85.105;  -81.811
663.483;  -75.384; -593.104; -568.812
663.753;  -52.707; -194.104; -152.812
664.023;   -5.781;   68.896;  -32.813
664.293;  -47.529; -319.104; -126.813
664.563; -127.677; -694.104; -648.813
664.833; -122.000; -743.103; -608.814
665.103; -132.548; -730.103; -793.814
665.373; -123.396; -766.103; -806.814
665.643;  -86.044; -863.103; -918.815
665.913;   41.982; -534.103; -714.815
666.182;  145.309; -685.102; -719.816
666.452;  277.711;  -22.102;  -89.816
666.722;  -20.262; -724.102; -784.816
666.992; -133.535; -948.102; -921.817
667.261;  -86.733; -824.102; -808.817
667.531;  228.044;  134.899;   45.183
667.801;  586.520; -440.101; -412.818
668.070;  237.597;  714.899;  697.182
668.340; -104.326; -883.101; -840.819
668.609;   97.376;  588.900;  301.181
668.879;  -82.322; -490.100; -558.819
669.149;  -66.595; -539.100; -516.820
669.418; -110.093; -698.100; -726.820
669.688;  -39.467; -482.100; -666.820
669.957;   74.185; -423.099; -546.821
670.226;  -24.563; -268.099; -331.821
670.496;  -84.786; -431.099; -635.822
670.765;  -85.884; -418.099; -501.822
671.034; -129.682; -872.099; -828.822
671.304;  -14.430;   55.902; -111.823
671.573; -149.704;-1085.098; -957.823
671.842;   84.073; -380.098; -294.823
672.112;   36.100; -692.098; -586.824
672.381;    0.802; -239.098; -214.824
672.650; -135.196;-1005.097;-1021.825
672.919; -106.294; -631.097; -507.825
673.188; -100.242; -681.097; -878.825
673.457; -168.040;-1101.097;-1143.826
673.726;  -73.489; -579.096; -646.826
673.995;  -39.062; -533.096; -479.826
674.265;    3.690; -263.096; -333.827
674.534;   10.717; -183.096; -235.827
674.802;   -6.656; -618.096; -703.828
675.071; 1060.896; -886.095; -801.828
675.340; 3992.348; -464.095; -339.828
675.609; 1326.074;  103.905;   82.171
675.878;   74.701; -949.095; -893.829
676.147;   16.203;  -26.095;   -8.829
676.416;  100.855; -210.094; -294.830
676.685;  751.257; 1000.906; -622.830
676.953;  109.209; -603.094; -452.831
677.222;  -46.314; -193.094; -273.831
677.491;  -42.338;  -24.094; -127.831
677.759;   -1.861;   11.907;  172.168
678.028;  -13.984; -279.093; -222.832
678.297;    0.443;   71.907;  197.168
678.565; -124.330; -898.093; -944.833
678.834;  -63.053; -311.093; -268.833
679.102;  -94.801; -411.092; -391.834
679.371; -157.800; -898.092; -727.834
679.639; -132.548; -797.092; -786.834
679.908; -126.021; -794.092; -724.835
680.176; -161.269; -895.091; -941.835
680.445;  -71.992; -346.091; -352.835
680.713;  -16.540;  -58.091;  -23.836
680.982;  -83.888; -523.091; -525.836
681.250; -109.662; -578.091; -507.837
681.518; -111.760; -534.090; -751.837
681.787;  -25.583; -204.090; -167.837
682.055;  -62.981; -490.090; -422.838
682.323; -159.204; -993.090; -992.838
682.591;   32.573; -216.090; -538.838
682.859;   89.225;    9.911;  -35.839
683.128;   11.652;  232.911;  497.161
683.396; -166.772;-1102.089;-1122.840
683.664;  -42.645; -241.089;   21.160
683.932;   -3.443;  144.911;  -76.840
684.200;  -92.891; -576.088; -320.841
684.468;  -15.039;  -73.088; -124.841
684.736;  -27.987; -214.088; -175.841
685.004; -116.710;-1024.088; -982.842
685.272;  -67.134; -880.088; -774.842
685.540;  -67.707; -499.087; -557.843
685.808;  -91.430; -651.087; -682.843
686.076; -110.578; -894.087; -969.843
686.343;  -62.551; -601.087; -815.844
686.611;   47.026; -195.087; -224.844
686.879;  506.878; -530.086; -553.844
687.147; 3349.829; -483.086; -480.845
687.414;  935.331;  -12.086; -169.845
687.682;    3.858; -658.086; -757.846
687.950;  327.435;  259.915;  263.154
688.217;   22.312; -792.085; -760.846
688.485;   -2.486; -632.085; -636.847
688.753;  570.866;  -11.085; -102.847
689.020;  167.767; -820.085; -851.847
689.288; -100.331; -853.084; -787.848
689.555;  -36.304; -195.084; -148.848
689.823;  -54.527; -241.084; -345.849
690.090;  -90.900; -546.084; -651.849
690.358; -142.023; -877.084; -897.849
690.625;    6.029;  120.917;   45.150
690.892;  -73.744; -403.083; -369.850
691.160;  -17.718;   72.917;  -35.850
691.427;    1.659;  141.917;  130.149
691.694; -148.089; -855.083; -929.851
691.962; -144.162;-1177.082;-1060.852
692.229;    0.740;  127.918;   56.148
692.496;  103.392;  130.918;  -49.852
692.763;    6.444; -164.082; -201.853
693.031;  -61.180; -739.082; -716.853
693.298;  -50.953; -509.081; -368.853
693.565;  340.424; -155.081; -163.854
693.832; 1281.901;   -5.081;   -9.854
694.099;  147.678; -643.081; -642.855
694.366;  -77.095; -882.081; -896.855
694.633;  -51.218; -920.080; -633.855
694.900;  771.458; 4367.920; -114.856
695.167;  440.660; -214.080; -380.856
695.434;  114.187; -646.080; -623.856
695.701;  193.564;  121.921;  -61.857
695.968;  484.441; -365.079; -361.857
696.234; 1071.793; -415.079; -646.858
696.501;10734.370; -776.079; -614.858
696.768; 5301.221; -554.079; -617.858
697.035;  315.423; -632.078; -667.859
697.302;   23.300; -448.078; -552.859
697.568;    7.077; -458.078; -497.859
697.835;  -49.221; -683.078; -624.860
698.102;  -31.544; -498.078; -407.860
698.368;   78.158;  384.923;  396.139
698.635;  -31.266;  -47.077; -424.861
698.901;   -8.689; -240.077; -348.861
699.168;   44.388; -534.077; -456.862
699.435;   82.365;  -72.077;  -13.862
699.701; -106.883; -868.076; -764.862
699.968;  -37.881;  144.924; -441.863
700.234;  -96.979; -783.076; -822.863
700.500;  -61.627; -448.076; -539.864
700.767;    1.024;   -1.075;   26.136
701.033; -125.549;-1015.075; -963.864
701.299;  -62.997; -450.075; -483.865
701.566;  123.505;  950.925;  763.135
701.832;   19.932;  -31.075;  -76.865
702.098; -102.891;-1054.074;-1034.866
702.365;  -78.689;-1098.074;-1030.866
702.631;  -30.113;-1038.074;-1063.867
702.897; 1460.389; -765.074; -676.867
703.163; 2236.241;  348.926;  254.133
703.429;  159.368; -256.073; -273.868
703.695;  -32.780; -796.073; -792.868
703.961;   26.622; -214.073; -210.868
704.227;  -58.551; -630.073; -725.869
704.493;  134.325;  613.927;  510.131
704.759;  -23.573; -565.072; -540.870
705.025;   33.254; -203.072; -194.870
705.291;   -3.244; -666.072; -562.870
705.557;  205.433;  719.928;   34.129
705.823;   24.260; -742.072; -694.871
706.089;  156.387; -307.071; -326.871
706.355;  383.038; -315.071; -244.872
706.620; 5993.090; -776.071; -729.872
706.886; 8082.467; -309.071; -362.873
707.152;  743.619; -818.070; -973.873
707.418;  -15.529;-1153.070;-1186.873
707.683;   10.473; -550.070; -530.874
707.949;  -42.650; -547.070; -578.874
708.215;    0.001; -129.070; -207.874
708.480;  -18.997; -520.069; -420.875
708.746;   85.880;   68.931;   28.125
709.011;  -67.468; -578.069; -612.876
709.277;  -72.666; -538.069; -543.876
709.542;  -49.514; -428.069; -387.876
709.808;  -14.762;  -59.068;   89.123
710.073;  -84.210; -577.068; -695.877
710.339;  -29.984; -242.068; -228.877
710.604;  100.418; -780.068; -845.878
710.869;  338.620; -277.068; -366.878
711.135;  -75.003; -715.067; -628.879
711.400;  -94.926; -507.067; -608.879
711.665;  -68.374; -404.067; -479.879
711.931;  -93.947; -661.067; -677.880
712.196; -115.321; -876.067; -954.880
712.461;  128.806; -402.066; -490.880
712.726;  136.258; -727.066; -771.881
712.991;  -86.290; -647.066; -664.881
713.256;  -47.738; -350.066; -332.882
713.521;  -62.661; -417.065; -381.882
713.787;  -71.384; -454.065; -472.882
714.052;  -35.383; -214.065; -400.883
714.317;  -82.631;-1045.065; -981.883
714.581; 1141.721; -374.065; -268.883
714.846; 1443.673; -822.064; -888.884
715.111;  122.375;  261.936;  257.116
715.376;  -25.198;  -86.064; -223.885
715.641;  -16.296; -365.064; -367.885
715.906;  318.755;   15.936; -551.885
716.171;  142.082;  221.937;  209.114
716.436;   31.934;  -78.063; -104.886
716.700; -102.764; -818.063; -692.886
716.965; -122.762; -794.063; -807.887
717.230;  -70.235; -339.063; -392.887
717.494;  -24.683;  -40.062; -134.888
717.759; -102.832; -784.062; -640.888
718.024;   -3.080;  269.938;  250.112
718.288;   66.197;  685.938;  395.111
718.553; -156.326; -803.062; -977.889
718.817; -141.349; -883.061; -899.889
719.082;  -29.472; -115.061; -125.890
719.346; -142.845;-1000.061; -947.890
719.611;  -50.968; -300.061; -255.891
719.875;  -89.317; -568.060; -537.891
720.140;  -69.690; -453.060; -603.891
720.404;   33.237; -136.060; -249.892
720.668;  888.189; -475.060; -411.892
720.933;  315.391;  146.940;  137.108
721.197;  -96.582; -667.059; -600.893
721.461; -131.080; -851.059; -826.893
721.725;  -14.029;  -21.059; -250.894
721.990;  -53.477; -284.059; -204.894
722.254;  -23.775;  -26.059; -108.894
722.518;  -70.223; -286.058; -442.895
722.782; -100.246; -743.058; -594.895
723.046;  124.031;  614.942;  570.105
723.310;   32.933;  374.942;  210.104
723.574; -111.766; -654.058; -614.896
723.838;  -98.239; -576.057; -642.897
724.102;  -47.862; -226.057; -239.897
724.366; -133.235;-1032.057; -978.897
724.630; -107.458; -749.057; -571.898
724.894;  -70.656; -722.057; -514.898
725.158;   -9.904;   38.944; -295.898
725.422;  -53.853; -394.056; -327.899
725.685;  -60.076; -441.056; -349.899
725.949;  -76.074; -566.056; -519.900
726.213;  -89.022; -732.056; -811.900
726.477;  187.680;-1020.055; -933.900
726.740;  149.407; -274.055; -104.901
727.004;  373.909; -384.055; -510.901
727.268; 3528.460; -442.055; -400.901
727.531;  933.162; -961.055; -775.902
727.795;  -44.811; -713.054; -673.902
728.059;  -58.709; -552.054; -557.903
728.322;  -81.257; -841.054; -669.903
728.586;   17.420; -692.054; -701.903
728.849;  -90.953; -695.053; -756.904
729.112; -117.251; -812.053; -912.904
729.376; -132.175; -959.053; -905.904
729.639;  -59.873; -536.053; -536.905
729.903; -110.746; -733.053; -699.905
730.166;  -48.069; -437.052; -399.906
730.429;  -33.867; -317.052; -468.906
730.693;  -70.990; -355.052; -894.906
730.956;  212.837;  810.948;  651.093
731.219;  715.513; -310.052; -103.907
731.482;  128.490;-1003.051; -894.907
731.745;   91.492; -794.051; -935.908
732.009;    7.894;  -30.051;   50.092
732.272;  -90.679; -904.051; -771.909
732.535;  -51.252; -300.051; -310.909
732.798; -151.350;-1083.050;-1166.909
733.061;  -52.849; -430.050; -456.910
733.324;    0.028;   31.950; -180.910
733.587;   62.005;  290.950;  365.090
733.850;  -69.793; -973.049;-1050.911
734.113;   37.709;   33.951;   32.089
734.376;    4.511; -328.049; -447.912
734.639;  225.938; 1188.951; 1011.088
734.901;   86.089; -180.049; -402.912
735.164;  565.691; -883.048; -837.913
735.427; 1351.818; -166.048; -355.913
735.690;  132.745; -205.048; -234.913
735.952;  -26.253; -923.048; -925.914
736.215;  -25.301;-1113.048;-1009.914
736.478;   69.051; -771.047; -774.915
736.740;  226.852;   33.953;  129.085
737.003;  761.429; -658.047; -672.915
737.266; 4139.081;  -94.047;   46.084
737.528;  450.958; -682.047; -660.916
737.791;  327.035; -316.046; -327.916
738.053;  884.737;  465.954;  649.083
738.316;11619.564; -162.046; -136.917
738.578; 7602.216; -770.046; -736.918
738.841;  439.292; -382.046; -446.918
739.103;  198.144; -875.045; -777.918
739.365;  510.471;   79.955;  -69.919
739.628;   -5.827; -884.045; -805.919
739.890;  -34.050; -758.045; -710.919
740.152;  -50.123; -692.044; -754.920
740.414;    2.154; -408.044; -359.920
740.677;  -38.845; -785.044; -634.921
740.939;  -37.993; -587.044; -487.921
741.201;  286.959; -432.044; -572.921
741.463;   46.236; -689.043; -745.922
741.725;   18.038;  -21.043; -199.922
741.987;   62.865;  220.957;  116.078
742.249;   -2.858; -751.043; -859.923
742.511;  235.943; -703.043; -794.923
742.773;   20.120; -546.042; -546.924
743.035;  131.472;  796.958;  533.076
743.297;  -39.751; -963.042;-1013.924
743.559;  767.051; -278.042; -262.925
743.821;   44.303; -735.042; -744.925
744.083;   15.305;  -44.041; -149.925
744.345;  -90.719; -869.041; -892.926
744.607;   39.008;   75.959;  122.074
744.868;  -41.115; -490.041; -554.927
745.130; -103.488; -994.041;-1008.927
745.392;   43.039;   -1.040;  -44.927
745.653;  -18.734; -411.040; -378.928
745.915;  165.118;  896.960;  631.072
746.177;   70.545;   35.960;  -43.928
746.438;   -1.229; -428.040; -543.929
746.700;  -40.052; -947.039; -988.929
746.961;    9.125; -659.039; -740.930
747.223;  148.902; -190.039;  -74.930
747.484;   86.554; -391.039; -471.930
747.746;  150.581;  -23.038; -106.931
748.007;  113.183; -647.038; -689.931
748.269;  324.184; -468.038; -440.931
748.530;  507.936; -852.038; -638.932
748.791;  286.663; -354.038; -420.932
749.053;  464.790;  286.963;  163.067
749.314;  478.367; -236.037; -169.933
749.575;  525.819; -945.037; -905.933
749.836;  871.846; -217.037;   86.066
750.098; 2770.472;  -60.037;  -21.934
750.359;38805.349;  414.964;  555.066
750.620; 9183.776; -121.036; -220.935
750.881; 1108.828; -585.036; -513.935
751.142; 1443.380; -950.036; -938.936
751.403;18001.432; -789.036; -705.936
751.664; 7305.709;-1034.035; -999.936
751.925;  503.510; -175.035; -262.937
752.186;  285.762; -298.035; -278.937
752.447;  127.239; -590.035; -445.937
752.708;   51.441; -532.035; -648.938
752.969;   13.643; -566.034; -576.938
753.230;   -2.080; -777.034; -672.939
753.491;  -19.578; -650.034; -631.939
753.751;   75.948;  109.966;   19.061
754.012;   91.650;  258.967;  181.060
754.273;   53.027; -174.033;  -71.940
754.534;   12.504; -487.033; -580.940
754.794;  -97.069; -926.033; -911.941
755.055;  148.858; 1051.967;  881.059
755.316;  -39.615; -700.032; -566.942
755.576;  -31.213; -606.032; -576.942
755.837;  -47.112; -527.032; -695.942
756.097;  -34.835; -530.032; -564.943
756.358;  -65.983; -725.032; -770.943
756.618;  -38.456; -705.031; -641.943
756.879;   10.571; -254.031; -349.944
757.139; -126.452;-1098.031;-1116.944
757.400;  -49.475; -538.031; -553.945
757.660;   -5.174; -365.031; -401.945
757.920;   20.878; -266.030; -228.945
758.181;  -14.320; -468.030; -351.946
758.441;  -86.868; -870.030; -809.946
758.701;  -37.316; -308.030; -215.946
758.961;  -13.814; -220.030; -278.947
759.222;  -51.412; -574.029; -502.947
759.482;  -72.836; -683.029; -723.948
759.742;  -85.409; -706.029; -547.948
760.002;    7.418;  -83.029; -143.948
760.262;   21.470;   50.972;  182.051
760.522;  -33.803; -498.028; -574.949
760.782;  -65.751; -738.028; -612.949
761.042;  -29.399; -618.028; -573.950
761.302;   43.027;   55.972;  -18.950
761.562;   59.104; -164.027; -154.951
761.822;   85.856; -710.027; -551.951
762.082;  -35.292;-1104.027;-1093.951
762.342;   66.335; -328.027; -403.952
762.601;   80.137; -567.027; -506.952
762.861;  370.614; -281.026; -207.952
763.121;  417.365; -406.026; -411.953
763.381; 7768.342; -499.026; -485.953
763.640; 7815.469; -139.026; -307.954
763.900;  336.396; -242.026; -203.954
764.160;   68.148; -458.025; -491.954
764.419;  -20.400; -726.025; -782.955
764.679;  -62.198; -795.025; -726.955
764.939;  -14.546; -124.025; -210.955
765.198;  -76.070; -608.025; -563.956
765.458;  -96.293; -710.024; -612.956
765.717;  -84.666; -454.024; -590.957
765.976;  -64.839; -428.024; -411.957
766.236;  -75.487; -475.024; -610.957
766.495;   28.790;  260.977;   73.042
766.755;  -94.358;-1090.023; -987.958
767.014;    2.193; -594.023; -665.958
767.273;  -55.130; -373.023; -397.959
767.533;  -41.628; -228.023; -307.959
767.792;  -29.151; -151.022; -188.960
768.051;  -58.399; -228.022; -276.960
768.310;  -92.297; -546.022; -650.960
768.569;  -19.670; -161.022;    4.039
768.828;  -27.994; -285.022; -363.961
769.088; -123.217;-1050.021; -942.961
769.347;  -90.165; -755.021; -599.962
769.606; -106.438; -876.021; -857.962
769.865; -122.661;-1016.021;-1033.963
770.124;   -5.834; -411.021; -336.963
770.383;  -50.507; -778.020; -910.963
770.641;   -9.956; -398.020; -400.964
770.900;  -65.329; -953.020; -846.964
771.159;  -56.952; -851.020; -951.964
771.418;   -8.625; -917.020; -779.965
771.677;  127.127; -224.019; -293.965
771.936;  152.554; -794.019; -865.966
772.194; 2509.556; -465.019; -437.966
772.453;11154.282; -213.019; -391.966
772.712;  757.634;  416.982;  329.033
772.970;  112.486;   32.982;   63.033
773.229;   92.888;  -22.018;  102.033
773.488;  -76.285; -814.018; -770.968
773.746;   50.442;  296.982;  335.032
774.005;    6.644;  190.983;  -22.969
774.263;   15.846;  243.983;  177.031
774.522; -106.278; -422.017; -548.969
774.780;  -97.151; -484.017; -417.970
775.039;  -88.624; -551.017; -531.970
775.297;  -42.372; -135.016; -351.970
775.555; -117.170; -489.016; -612.971
775.814; -123.043; -618.016; -570.971
776.072; -124.191; -749.016; -740.971
776.330;  -97.715; -630.016; -520.972
776.589; -122.363; -703.015; -721.972
776.847; -140.461; -645.015; -624.973
777.105; -164.684;-1016.015;-1032.973
777.363;  -81.357; -459.015; -454.973
777.621; -142.705; -660.015; -717.974
777.879;  -28.028;  -42.014;   32.026
778.138; -104.452; -554.014; -717.974
778.396; -113.525; -585.014; -526.975
778.654; -163.823;-1015.014; -970.975
778.912;  -62.346; -269.014; -371.976
779.170; -143.469; -880.013; -803.976
779.427; -154.192; -922.013; -897.976
779.685; -144.990; -880.013; -832.977
779.943;  -90.914; -654.013; -593.977
780.201; -145.212; -964.012; -883.978
780.459; -123.335; -651.012; -610.978
780.717;  -83.058; -440.012; -390.978
780.974; -106.231; -449.012; -490.979
781.232;  -68.904; -358.012; -338.979
781.490;  -87.352; -551.011; -472.979
781.747;  -85.251; -555.011; -476.980
782.005;   11.226;  462.989;  254.020
782.263; -158.597; -542.011;-1004.981
782.520;  -89.195; -326.011; -501.981
782.778; -177.043;-1013.010;-1051.981
783.035; -176.366; -962.010; -938.982
783.293;  -67.864; -248.010; -206.982
783.550;  -66.762; -134.010; -198.982
783.808; -135.011; -764.010; -776.983
784.065; -160.684; -745.009; -874.983
784.322;  -42.607;   25.991;  -86.984
784.580; -148.955; -915.009; -771.984
784.837;  -92.803; -392.009; -466.984
785.094; -136.626; -783.009; -762.985
785.352;  -82.399; -304.008; -404.985
785.609; -114.598; -934.008; -839.985
785.866;  -74.471; -345.008; -401.986
786.123;  -57.194; -639.008; -583.986
786.380; -107.492; -665.008; -604.987
786.637;  -48.815; -225.007; -380.987
786.895;  -23.863; -456.007; -543.987
787.152;  -43.936; -135.007; -267.988
787.409;  -30.210; -123.007; -225.988
787.666;  -76.808; -299.006; -378.988
787.923; -112.481; -616.006; -695.989
788.179; -103.829; -551.006; -584.989
788.436; -104.102; -585.006; -585.990
788.693;  -38.050;  -92.006;  -87.990
788.950;  166.652; -125.005; -112.990
789.207;  218.953; -381.005; -372.991
789.464;  -52.970; -161.005; -301.991
789.720;  -17.593;  150.995;  110.009
789.977; -172.616;-1003.005; -671.992
790.234;  -32.714;   44.996;  -66.992
790.490; -150.687; -884.004;-1031.993
790.747;  -25.335;  -85.004;   22.007
791.004;  -33.659; -426.004; -348.993
791.260;  -87.107; -430.004; -560.994
791.517; -100.305; -843.003; -788.994
791.773;  -37.253; -379.003; -342.994
792.030; -120.701; -596.003; -660.995
792.286; -102.699; -686.003; -636.995
792.543;  -16.522;  -74.002; -159.995
792.799;  -47.095; -584.002; -382.996
793.055; -164.494;-1179.002;-1210.996
793.312;  -96.642; -827.002; -816.997
793.568;  -66.240; -746.002; -599.997
793.824;   12.387; -226.001; -284.997
794.081;   20.064; -447.001; -508.998
794.337;   57.891; -664.001; -561.998
794.593; 1481.293; -319.001; -271.999
794.849; 6496.919; -746.001; -772.999
795.105;  304.646; -270.000; -261.999
795.361;   -4.377; -490.000; -457.000
795.617;  -75.300; -875.000; -945.000
795.873;  -53.975; -360.000; -407.000
796.129;  -29.025; -368.000; -306.000
796.385;  -19.550; -124.000; -156.000
796.641;   64.825;  412.000;  550.000
796.897;  -86.800; -666.000; -635.000
797.153;   82.700;  453.000;  357.000
797.409; -101.425; -785.000; -868.000
797.665;  -79.325; -625.000; -732.000
797.921;  -80.825; -775.000; -762.000
798.176;  -60.500; -744.000; -747.000
798.432;  -59.175; -824.000; -596.000
798.688;  -64.525;-1174.000;-1078.000
798.943;   85.700; -165.000; -147.000
799.199;    4.175;-1005.000; -959.000
799.455;  239.650;  369.000;  316.000
799.710;  122.975; -813.000; -380.000
799.966;  312.900; -162.000; -160.000
800.221;  524.175; -638.000; -721.000
800.477;11352.725; -743.000; -710.000
800.732; 8991.975; -773.000; -800.000
800.988;  632.450;  205.000;  -19.000
801.243; 2026.350; -454.000; -344.000
801.498; 7887.300; -814.000; -739.000
801.754;  421.275; -289.000; -163.000
802.009;   71.975; -257.000; -335.000
802.264;  -48.625; -967.000;-1033.000
802.520;    7.250;  222.000;   -3.000
802.775;  -58.375; -524.000; -359.000
803.030;   48.275;  395.000;  356.000
803.285; -114.200; -840.000; -903.000
803.540;  -61.700; -686.000; -699.000
803.795;  -46.200; -648.000; -583.000
804.051;  -45.325; -279.000; -346.000
804.306;   14.625;  168.000;  128.000
804.561;  153.775;  451.000;  362.000
804.816;  129.275;  714.000;  861.000
805.071;    9.600; -185.000; -280.000
805.325;  225.800; -257.000; -427.000
805.580; -103.950; -841.000; -877.000
805.835;  -19.100; -204.000; -297.000
806.090;  -85.825; -760.000; -676.000
806.345;  -22.150; -344.000; -264.000
806.600;  -31.900; -549.000; -632.000
806.854;  -40.900; -408.000; -538.000
807.109;  -15.100; -493.000; -577.000
807.364;   11.350; -407.000; -328.000
807.618;   -5.100; -415.000; -381.000
807.873;   59.200; -470.000; -494.000
808.128;   98.450; -257.000; -518.000
808.382;  108.125; -224.000; -332.000
808.637;   77.525; -440.000; -511.000
808.891;  174.525; -257.000; -180.000
809.146;  104.450; -902.000; -794.000
809.400;  265.850; -848.000; -923.000
809.654;  329.300; -779.000; -551.000
809.909;  500.800; -841.000; -927.000
810.163; 7190.150; -813.000; -651.000
810.418;16771.175; -940.000; -861.000
810.672; 1010.050; -685.000; -690.000
810.926;  721.500; -993.000; -973.000
811.180; 1428.450; -439.000; -372.000
811.434;32813.875;  240.000;  135.000
811.689;11806.200; -231.000; -365.000
811.943;  594.525; -936.000; -953.000
812.197;  316.475; -893.000; -671.000
812.451;  124.900; -379.000; -514.000
812.705;  -21.925; -809.000; -619.000
812.959;   -2.525; -263.000; -388.000
813.213;  -16.975; -283.000; -209.000
813.467;   92.475;  470.000;  253.000
813.721;  -97.225; -764.000; -792.000
813.975; -109.450; -826.000; -877.000
814.229;   43.050;  430.000;  353.000
814.482;  -75.100; -517.000; -566.000
814.736; -130.500; -766.000; -744.000
814.990; -125.950; -779.000; -872.000
815.244;  -54.950; -228.000; -285.000
815.497;  -85.025; -636.000; -601.000
815.751;  -13.125; -141.000;   82.000
816.005;  -96.000; -470.000; -586.000
816.258;  -71.975; -510.000; -363.000
816.512; -118.425; -693.000; -610.000
816.766;   -0.800;  121.000;  157.000
817.019;   17.250;  148.000;  149.000
817.273; -116.175;-1000.000; -802.000
817.526;  -25.950; -206.000; -173.000
817.779;  -43.525;-1049.000; -960.000
818.033;  -86.225; -693.000; -807.000
818.286; -121.875; -725.000; -792.000
818.540;  -78.775; -403.000; -403.000
818.793;  -90.400; -402.000; -489.000
819.046; -113.025; -582.000; -520.000
819.299;  -44.275; -157.000; -166.000
819.553; -114.200; -552.000; -592.000
819.806; -161.900;-1016.000; -838.000
820.059;  -64.100; -334.000; -354.000
820.312;   28.275;  152.000;  185.000
820.565;  -17.175;  110.000;  -27.000
820.818;  -47.125;  -59.000; -173.000
821.071; -167.350;-1041.000; -957.000
821.324; -116.700; -536.000; -540.000
821.577; -106.275; -457.000; -483.000
821.830;  -67.525; -270.000; -172.000
822.083; -123.225; -733.000; -288.000
822.336;  -60.825; -261.000; -167.000
822.589; -156.700; -805.000; -688.000
822.842; -146.025; -875.000; -770.000
823.094; -187.875;-1076.000;-1114.000
823.347; -134.450; -925.000; -729.000
823.600;   21.175;  402.000;  187.000
823.853;  -56.150; -311.000; -267.000
824.105;  -83.225; -331.000; -575.000
824.358; -120.950; -617.000; -716.000
824.611;   42.875;  234.000;   40.000
824.863;  -52.475; -612.000; -591.000
825.116;   42.525;  -33.000;   27.000
825.368;   75.800; -366.000; -372.000
825.621;  136.900; -186.000; -240.000
825.873;   85.250; -704.000; -737.000
826.126;  668.900; -669.000; -641.000
826.378;12328.750; -389.000; -505.000
826.630; 2629.300; -890.000; -898.000
826.883;   45.500; -754.000; -693.000
827.135;   46.525; -279.000; -270.000
827.387; -129.300; -893.000; -839.000
827.639;  -29.200;  -86.000;   32.000
827.892; -130.175; -742.000; -582.000
828.144; -147.850; -848.000; -804.000
828.396;  -36.475;  104.000;  -80.000
828.648;  -97.375; -440.000; -333.000
828.900; -145.075; -702.000; -795.000
829.152; -109.875; -684.000; -683.000
829.404;  -66.750; -215.000; -267.000
829.656;  -49.700;  321.000;  214.000
829.908;  -17.150;  393.000;  229.000
830.160; -171.000;-1064.000;-1047.000
830.412; -103.175; -481.000; -430.000
830.664; -122.450; -557.000; -665.000
830.916;  -79.850; -268.000; -206.000
831.167; -173.850;-1073.000; -951.000
831.419; -106.300; -623.000; -566.000
831.671; -157.875; -764.000; -809.000
831.923;  -99.625; -311.000; -447.000
832.174;  -65.525; -273.000; -331.000
832.426; -133.425; -493.000; -582.000
832.678; -188.300;-1043.000;-1091.000
832.929; -174.525; -947.000; -935.000
833.181;  -71.825; -575.000; -677.000
833.432;  -62.675;  -59.000; -186.000
833.684;  -18.875;  112.000;  -27.000
833.935; -121.750; -610.000; -566.000
834.187; -130.825; -829.000; -823.000
834.438;  -53.350;  -58.000;  -25.000
834.689;  -61.975; -255.000; -123.000
834.941;  -61.000; -343.000; -244.000
835.192;  -96.450; -590.000; -533.000
835.443; -106.600; -419.000; -506.000
835.695;  -23.025;  138.000;  -16.000
835.946; -100.650; -608.000; -378.000
836.197; -108.525; -599.000; -622.000
836.448;  -98.075; -528.000; -395.000
836.699;  -51.150; -253.000; -341.000
836.950;  -10.975;   72.000;    7.000
837.201; -158.150;-1003.000; -987.000
837.452;  -49.050; -356.000; -170.000
837.703; -115.000; -791.000; -737.000
837.954;  -46.575; -205.000; -365.000
838.205;  -79.050;-1029.000;-1008.000
838.456;  166.575; -196.000; -282.000
838.707;   10.925; -423.000; -519.000
838.958;    6.850; -634.000; -647.000
839.209;  256.225;   18.000;   40.000
839.460;  124.600; -439.000; -201.000
839.710;  169.925; -135.000; -297.000
839.961;  422.850;  730.000;  612.000
840.212;  348.550; -382.000; -497.000
840.462; 1212.850; -328.000; -277.000
840.713;19100.125; -571.000; -536.000
840.964; 6818.000;  -62.000; -143.000
841.214;  493.700; -384.000; -624.000
841.465;  557.375; -214.000; -141.000
841.715;  503.850; -417.000; -380.000
841.966;  664.225; -746.000; -685.000
842.216; 9850.375; -330.000; -431.000
842.466;33565.175; -169.000; -313.000
842.717; 1631.150; -964.000; -952.000
842.967;  307.425; -635.000; -641.000
843.217;  250.900;   20.000;   28.000
843.468;   66.000; -104.000; -132.000
843.718;  -48.725; -718.000; -726.000
843.968;  -89.750; -837.000; -765.000
844.218;   15.875; -315.000; -262.000
844.469;  -58.975; -577.000; -561.000
844.719; -103.975; -537.000; -682.000
844.969;  -99.600; -550.000; -580.000
845.219; -139.700; -814.000; -862.000
845.469;  -85.700; -392.000; -342.000
845.719; -137.625; -792.000; -884.000
845.969;  -19.300;  119.000;  174.000
846.219; -131.450; -738.000; -720.000
846.469;    3.175;  464.000;  432.000
846.718;  -55.125; -115.000;   31.000
846.968; -144.925; -827.000; -827.000
847.218;  -49.375; -224.000; -371.000
847.468;  -13.250; -586.000; -555.000
847.718; -150.225; -827.000; -798.000
847.967; -137.900; -826.000; -915.000
848.217;  -82.800; -449.000; -569.000
848.467;  -80.375; -405.000; -376.000
848.716; -117.700; -708.000; -725.000
848.966;   -9.775; -372.000; -358.000
849.215;  -66.425; -428.000; -419.000
849.465; -103.525; -785.000; -615.000
849.714; -144.000;-1132.000;-1150.000
849.964;  -78.375; -551.000; -613.000
850.213;  -24.200; -393.000; -355.000
850.463;   77.950;  137.000;  340.000
850.712;    3.600; -542.000; -567.000
850.961;   17.350; -739.000; -678.000
851.211;  100.950; -513.000; -504.000
851.460;  163.975; -635.000; -650.000
851.709;  589.375;  -25.000;   18.000
851.958;11392.575; -912.000; -750.000
852.208;12450.450; -859.000; -879.000
852.457;  454.400; -181.000;  -13.000
852.706;   82.175; -791.000; -823.000
852.955;    1.900; -507.000; -528.000
853.204;  -69.925; -521.000; -461.000
853.453;  -94.950; -418.000; -458.000
853.702; -137.025; -660.000; -750.000
853.951; -117.025; -532.000; -520.000
854.200; -107.175; -613.000; -562.000
854.449; -132.750; -695.000; -661.000
854.698;  -96.775; -340.000; -279.000
854.946;  -71.150; -181.000; -284.000
855.195; -165.250; -843.000; -868.000
855.444; -115.425; -395.000; -420.000
855.693; -113.500; -345.000; -432.000
855.941; -109.175; -387.000; -516.000
856.190;  -51.700; -256.000; -382.000
856.439; -118.675; -652.000; -703.000
856.687;  -63.425;  -99.000;  -72.000
856.936; -136.150; -621.000; -323.000
857.184; -180.950;-1067.000;-1020.000
857.433; -109.600; -423.000; -512.000
857.681; -162.200; -989.000; -953.000
857.930;  -88.650; -282.000; -433.000
858.178; -165.125; -856.000; -929.000
858.427; -146.475; -802.000; -781.000
858.675; -124.850; -377.000; -544.000
858.923; -117.200; -527.000; -819.000
859.172; -195.150;-1094.000;-1070.000
859.420;  -94.925; -339.000; -239.000
859.668; -142.900; -624.000; -628.000
859.916;  -23.400;  109.000;  115.000
860.164; -118.825; -699.000; -603.000
860.413;  314.150; -878.000; -696.000
860.661;  207.275; -709.000; -577.000
860.909;  -85.825; -339.000; -325.000
861.157;  -87.475; -277.000; -444.000
861.405; -133.850; -534.000; -670.000
861.653;   12.750;  310.000;  310.000
861.901;  188.150; -543.000; -613.000
862.149;  -28.675; -801.000; -824.000
862.396;  -81.825; -297.000; -187.000
862.644;  -89.350; -368.000; -347.000
862.892;  -41.650;   98.000;  138.000
863.140; -113.125; -549.000; -530.000
863.388; -171.025; -815.000; -759.000
863.635; -137.400; -642.000; -601.000
863.883;  -31.400;  231.000;  190.000
864.131;  -97.175; -288.000; -357.000
864.378; -142.900; -675.000; -540.000
864.626; -111.850; -347.000; -415.000
864.873; -126.950; -556.000; -505.000
865.121; -148.475; -714.000; -799.000
865.368;  -61.125; -173.000;   75.000
865.616;  -41.625;  -33.000;  -40.000
865.863;  -78.775; -462.000; -506.000
866.111; -114.650; -795.000; -824.000
866.358;   44.775; -426.000; -420.000
866.605; 2575.500;  -64.000; -804.000
866.853; 2305.550; -621.000; -537.000
867.100;  -41.850; -728.000; -775.000
867.347;  -99.700; -672.000; -611.000
867.594;  -83.800; -740.000; -714.000
867.841;   86.350;   97.000;   17.000
868.089; -156.725; -746.000; -698.000
868.336; -115.200; -477.000; -420.000
868.583; -141.425; -637.000; -741.000
868.830;  -51.250; -131.000; -170.000
869.077; -160.175; -859.000; -787.000
869.324; -129.750; -502.000; -458.000
869.571; -127.175; -398.000; -430.000
869.818; -137.525; -485.000; -439.000
870.065; -113.925; -439.000; -513.000
870.311; -120.850; -456.000; -542.000
870.558; -102.200; -332.000; -311.000
870.805;  -94.950; -320.000; -384.000
871.052; -118.200; -494.000; -369.000
871.298;  -63.475; -204.000; -131.000
871.545;  -72.000; -151.000; -185.000
871.792;  -95.125; -173.000; -222.000
872.038;  -71.800;   43.000; -126.000
872.285; -127.725; -496.000; -387.000
872.532; -101.000; -357.000; -387.000
872.778;   16.675;  556.000;  403.000
873.025; -102.375; -384.000; -359.000
873.271;   23.775;  501.000;  578.000
873.517;  -33.850; -133.000; -209.000
873.764;  -34.275; -193.000;  -80.000
874.010;  -72.000; -143.000; -230.000
874.257;  -53.350;  123.000;   90.000
874.503; -137.850; -579.000; -479.000
874.749;  -88.200;   31.000;  275.000
874.995;  -58.950;  -80.000;  -20.000
875.242; -134.375; -540.000; -478.000
875.488; -118.800; -414.000; -439.000
875.734;  -60.400; -106.000; -234.000
875.980;  209.600; -872.000;-1032.000
876.226;  360.350; -157.000; -255.000
876.472;  -14.275;  343.000;  237.000
876.718;  -36.200;  184.000;  158.000
876.964;  -42.125;   56.000;   55.000
877.210; -167.000; -547.000; -677.000
877.456; -142.900; -630.000; -557.000
877.702; -182.850; -821.000; -832.000
877.948; -120.100; -377.000; -497.000
878.193;    6.350;  361.000;  255.000
878.439;  -88.675; -487.000; -472.000
878.685; -100.300; -272.000; -343.000
878.931; -141.500; -618.000; -676.000
879.176;  -85.175; -201.000; -201.000
879.422; -190.150; -933.000; -820.000
879.668;   87.575;   10.000;   79.000
879.913;  133.600;   53.000;  137.000
880.159;  -61.375; -112.000;  -17.000
880.404;  -68.625; -152.000; -162.000
880.650;  -44.100;   91.000;  141.000
880.895; -155.175; -670.000; -710.000
881.141; -130.175; -454.000; -428.000
881.386; -160.650; -503.000; -658.000
881.631;  -92.825; -311.000; -166.000
881.877;  -35.300;  112.000;  -13.000
882.122; -141.225; -684.000; -600.000
882.367;  -97.100; -136.000; -186.000
882.612;  -98.050;  -80.000; -176.000
882.858; -171.825; -877.000; -823.000
883.103; -113.950; -297.000; -267.000
883.348; -155.725; -759.000; -852.000
883.593; -158.625; -677.000; -602.000
883.838;  -50.050; -311.000;  -24.000
884.083;   27.625;  353.000;  288.000
884.328;  -98.675; -564.000; -545.000
884.573;  -58.475; -196.000; -143.000
884.818;  229.425; -694.000; -531.000
885.063;  160.750; -348.000; -315.000
885.308; -111.150; -475.000; -398.000
885.553;   -0.850;  245.000;  325.000
885.797; -126.675; -545.000; -615.000
886.042;  -68.975;    8.000;   58.000
886.287;  -88.175; -253.000; -211.000
886.532;  -59.725;   26.000;  204.000
886.776;  -97.075; -407.000; -525.000
887.021; -152.275; -621.000; -574.000
887.265; -169.350; -685.000; -689.000
887.510; -157.150; -557.000; -496.000
887.755; -101.900; -194.000; -164.000
887.999; -144.725; -552.000; -575.000
888.244;  -58.725;  -58.000;  161.000
888.488;   -8.875;  371.000;  393.000
888.732; -121.150; -368.000; -520.000
888.977; -139.975; -622.000; -567.000
889.221; -152.425; -683.000; -659.000
889.465; -134.725; -422.000; -566.000
889.710;  -74.575;  -56.000; -299.000
889.954;   -6.900;  579.000;  467.000
890.198; -151.125; -584.000; -707.000
890.442; -158.150; -716.000; -712.000
890.687; -169.500; -800.000; -753.000
890.931;  -88.650; -273.000; -210.000
891.175; -135.550; -502.000; -500.000
891.419;  -82.300; -105.000; -110.000
891.663; -102.550; -239.000; -112.000
891.907; -175.175; -801.000; -545.000
892.151; -184.075; -920.000; -815.000
892.395; -115.375; -274.000; -387.000
892.638;  -36.900;  408.000;  291.000
892.882; -173.200; -780.000; -867.000
893.126;   14.700;  758.000;  558.000
893.370;  -97.850; -167.000; -168.000
893.614; -166.600; -714.000; -715.000
893.857; -117.650; -183.000; -197.000
894.101; -137.550; -527.000; -631.000
894.345;  -68.275;  300.000;  150.000
894.588;   17.675;  569.000;  380.000
894.832;  -89.600; -178.000;  -84.000
895.075;  -68.525;   15.000;  -92.000
895.319; -138.300; -552.000; -420.000
895.563; -114.225; -413.000; -353.000
895.806; -165.800; -628.000; -741.000
896.049;  -63.725; -576.000; -368.000
896.293;   96.600;  527.000;  405.000
896.536;  -88.675; -465.000; -468.000
896.779;  -66.575; -149.000;   -1.000
897.023; -146.575; -751.000; -714.000
897.266;  -43.450;  325.000;  269.000
897.509; -180.300; -900.000; -901.000
897.752;  -53.600;  149.000;  171.000
897.996; -189.250; -972.000; -864.000
898.239;  -56.500;  168.000;  102.000
898.482; -123.300; -431.000; -453.000
898.725;  -44.975;  101.000;   53.000
898.968; -151.675; -609.000; -744.000
899.211; -117.275; -513.000; -361.000
899.454; -121.775; -633.000; -539.000
899.697;  -70.000;   90.000;  -43.000
899.940; -164.800; -761.000; -757.000
900.182; -113.925; -335.000; -405.000
900.425;  -95.075; -150.000; -298.000
900.668;  -24.250;  491.000;  350.000
900.911; -116.400; -292.000; -345.000
901.154;  -56.600;  141.000;   -3.000
901.396; -153.600; -407.000; -412.000
901.639; -142.700; -430.000; -496.000
901.882; -181.500; -790.000; -809.000
902.124;  -90.325;  -29.000; -143.000
902.367; -135.750; -315.000; -361.000
902.609; -140.950; -476.000; -453.000
902.852;  -83.050; -108.000; -260.000
903.094; -132.900; -458.000; -337.000
903.337;  -63.975;  -26.000;   53.000
903.579; -118.925; -228.000; -441.000
903.821; -170.575; -597.000; -744.000
904.064;  -69.700;   85.000;  127.000
904.306;  -84.050; -126.000; -166.000
904.548; -115.050; -152.000; -366.000
904.790;  -94.925; -195.000; -340.000
905.033; -148.100; -625.000; -577.000
905.275; -128.600; -513.000; -524.000
905.517;   32.975;  468.000;  256.000
905.759;  -82.050; -667.000; -761.000
906.001; -106.825; -322.000; -369.000
906.243;  -78.950; -162.000; -224.000
906.485;  141.650; -265.000; -207.000
906.727;   97.525; -499.000; -542.000
906.969;  -44.375;  -30.000; -135.000
907.211;  117.825; -316.000; -382.000
907.453;  266.200; -188.000; -237.000
907.695;  -18.175; -158.000; -385.000
907.936;   39.125;  818.000;  706.000
908.178;  -49.950;   92.000; -135.000
908.420;  -83.975; -111.000; -162.000
908.662; -142.600; -633.000; -682.000
908.903; -100.850; -208.000; -123.000
909.145;  -56.550; -240.000; -305.000
909.386;  -17.550;  315.000;  280.000
909.628;   32.900;  363.000;  397.000
909.870;    3.250;   29.000;  264.000
910.111; -115.300; -809.000; -949.000
910.353;   15.025; -123.000; -161.000
910.594;    1.825; -574.000; -606.000
910.835;   71.975; -265.000; -326.000
911.077;  135.525; -503.000; -604.000
911.318;  286.450; -505.000; -471.000
911.559;  459.800; -577.000; -880.000
911.801; 1394.575; -284.000; -280.000
912.042;11244.925;  -50.000; -159.000
912.283;26572.550;  404.000;  371.000
912.524; 3663.450; -396.000; -457.000
912.765;  453.300; -193.000;   79.000
913.006;  218.825; -307.000; -338.000
913.247;   27.725; -270.000; -290.000
913.488;   -9.525;  -43.000;   30.000
913.729;  -89.125; -373.000; -373.000
913.970;  -78.200;  -96.000; -292.000
914.211;  -81.225; -160.000; -198.000
914.452;  -71.650; -118.000;  -11.000
914.693;    8.325;  510.000;  592.000
914.934;   21.925;  510.000;  440.000
915.175;  -79.275;   53.000;  -95.000
915.415;  -80.775; -137.000;   27.000
915.656;  -87.950;  -28.000;  192.000
915.897;  -92.900; -252.000;  -82.000
916.137;  -67.200;   74.000;   -9.000
916.378; -148.975; -573.000; -517.000
916.619;  -87.700; -159.000;  -63.000
916.859;  -22.500;  303.000;  330.000
917.100;  136.975; 1655.000; 1070.000
917.340;   34.650;  930.000;  728.000
917.581;   42.275;  965.000;  789.000
917.821;  -20.900; -171.000;  143.000
918.061;  -12.300; -199.000;  -72.000
918.302;  -49.400; -152.000; -211.000
918.542;  -41.500;  -22.000;    3.000
918.782;   42.500;  369.000;  377.000
919.023;  139.575;  360.000;  427.000
919.263; 1851.950; 8131.000;  202.000
919.503; 1110.225; -137.000;  -54.000
919.743;  629.200;  390.000;  266.000
919.983;  243.700; -134.000;  -26.000
920.223;   82.875;  135.000;   14.000
920.463;  157.800;  631.000;  554.000
920.703;  137.175;   84.000;   39.000
920.943;  158.750; -110.000;   90.000
921.183;  234.550; -414.000; -405.000
921.423;  525.950;  307.000;  546.000
921.663;  754.800; -174.000; -257.000
921.903; 1690.025;  237.000;  173.000
922.143; 9518.475;  372.000;  389.000
922.383;34975.275;  158.000;  115.000
922.622;10529.675; -120.000;  -15.000
922.862; 1156.400;  796.000;  785.000
923.102;  457.050;  -51.000;   33.000
923.341;  182.175;   59.000;   74.000
923.581;   69.900;  450.000;  360.000
923.821;   17.575;  301.000;  398.000
924.060;    1.275;  351.000;  193.000
924.300;  -74.650;  -16.000; -128.000
924.539;   -8.225;  584.000;  473.000
924.779;   13.500;  812.000;  597.000
925.018;  -49.450;  247.000;  353.000
925.257;  -22.775;  595.000;  666.000
925.497;  -38.375;  447.000;  412.000
925.736;  -91.175;  -35.000;  102.000
925.975;    1.350;  687.000;  669.000
926.214;   27.600;  907.000;  850.000
926.454;   29.775;  706.000;  757.000
926.693;  -52.150;  419.000;  543.000
926.932;   48.025; 1021.000;  825.000
927.171;   46.150; 1107.000; 1044.000
927.410;   62.450; 1144.000;  967.000
927.649;    6.450;  924.000;  742.000
927.888;  -17.575;  590.000;  564.000
928.127;  -25.550;  680.000;  678.000
928.366;   22.700;  842.000;  826.000
928.605;   34.225;  831.000;  737.000
928.844;  263.925; 1451.000; 1393.000
929.083;  635.450;  770.000;  613.000
929.321;  289.625; 1335.000; 1359.000
929.560;   79.075; 1158.000; 1122.000
929.799;  -26.425;  574.000;  475.000
930.038;   82.400; 1025.000; 1394.000
930.276;  -61.575;  334.000;  397.000
930.515;   -9.475;  827.000;  681.000
930.753;  -25.400;  614.000;  589.000
930.992;  -31.500;  664.000;  717.000
931.230;   17.300;  847.000;  847.000
931.469;  170.950; 2162.000;  892.000
931.707;   72.025;  840.000;  751.000
931.946;   70.925; 1278.000; 1344.000
932.184;   57.900; 1437.000; 1175.000
932.423;   45.900; 1265.000;  963.000
932.661;  100.975; 1296.000; 1428.000
932.899;   17.050;  987.000;  821.000
933.137;   15.000;  754.000;  564.000
933.376;  138.625; 1664.000; 1335.000
933.614;  163.175; 1759.000; 1196.000
933.852;   57.475; 1357.000; 1171.000
934.090;  134.500; 1722.000; 1747.000
934.328;  103.825; 1252.000; 1457.000
934.566;   84.725; 1431.000; 1110.000
934.804;  142.975; 1263.000; 1309.000
935.042;  497.300; 1861.000; 1850.000
935.280; 2019.600; 2088.000; 2063.000
935.518; 1725.475; 2113.000; 2007.000
935.756;  350.375; 2481.000; 2316.000
935.994;  165.225; 1808.000; 1751.000
936.231;  363.500; 2890.000; 2950.000
936.469;  190.800; 2367.000; 2378.000
936.707;  163.775; 2220.000; 2167.000
936.945;  226.600; 2825.000; 2882.000
937.182;  195.600; 2679.000; 2741.000
937.420;  307.825; 3602.000; 3031.000
937.657;  405.850; 3365.000; 3478.000
937.895;  366.775; 3331.000; 3488.000
938.133;  298.825; 3540.000; 3528.000
938.370;  339.275; 3896.000; 4191.000
938.607;  401.625; 4488.000; 4205.000
938.845;  562.150; 5587.000; 5549.000
939.082;  478.900; 5387.000; 5177.000
939.320;  536.250; 5799.000; 5728.000
939.557;  642.175; 6549.000; 6491.000
939.794;  730.575; 7285.000; 7097.000
940.031;  917.350; 8421.000; 8368.000
940.269; 1129.400; 9552.000; 9107.000
940.506; 1150.700;10901.000;10507.000

