
Integration time [ms]: 100.000
Averaging Nr. [scans]: 40
Smoothing Nr. [pixels]: 0
Data measured with spectrometer [name]: 2101013U2
Wave   ;Sample   ;Dark     ;Reference
[nm]   ;[counts] ;[counts] ;[counts] 

394.013;   73.159; -450.257; -315.536
394.305;  236.932; -461.258; -419.536
394.596;  905.386; -676.269; -527.514
394.887; 2097.502; -796.268; -654.518
395.178;  843.505;  145.736;   11.476
395.470;   89.790; -210.263; -356.526
395.761;  233.990;  305.734;  394.479
396.052;  371.570; -545.284; -306.489
396.343;  359.435; -557.276; -454.503
396.634;  149.181; -200.279; -290.497
396.926;  190.574; -618.268; -565.517
397.217;  163.914;   11.725;  -17.504
397.508;   72.954; -366.273; -154.507
397.799;   63.881; -555.279; -571.497
398.090;   18.076; -973.280; -902.495
398.381;  169.225;   11.708;  -11.473
398.672;   22.677; -585.292; -742.473
398.963;   81.886; -348.279; -373.498
399.254;  141.235;   54.709; -209.475
399.545;   -6.513;-1017.266; -883.520
399.836;   84.075; -407.277; -343.501
400.127;   60.903; -205.295; -209.468
400.418;   77.424; -423.274; -392.506
400.709;  100.864; -359.281; -333.493
401.000;   77.589; -268.291; -309.476
401.290;  133.070;  225.698;  115.545
401.581;   87.104; -166.286; -228.485
401.872;   39.328; -542.298; -486.462
402.163;   69.372; -313.296; -252.467
402.454;   96.811; -123.291; -163.475
402.744;  112.488; -844.297; -813.465
403.035;  571.967; -226.293;  -86.471
403.326;  778.154; -366.292; -384.474
403.617;  435.597;  204.701;  165.539
403.907;  222.325; -593.283; -679.490
404.198; 1896.152; -545.307; -599.446
404.489; 5093.405; -618.283; -588.491
404.779; 1891.423; -618.302; -660.456
405.070;  231.428;  -67.304; -174.451
405.360;  327.219; -259.293; -238.472
405.651;  337.408;  125.699;   98.542
405.942;  202.025;  209.714;  127.516
406.232;  389.213; -432.285; -413.487
406.523;  638.513;  641.706;  758.530
406.813;  144.277; -579.286; -644.484
407.104;  433.099;  261.708;  144.527
407.394;  280.623; -604.299; -591.462
407.685;  173.862;  336.715;  222.513
407.975;   89.129; -400.283; -382.490
408.265;  127.449; -134.289; -190.478
408.556;   83.183; -472.291; -459.475
408.846;  183.063;  474.706;  429.530
409.137;  101.507;   -1.288; -216.480
409.427;   49.663; -193.285; -271.487
409.717;   47.282; -776.273; -692.508
410.007;  171.607;    4.715; -170.486
410.298;  116.581; -360.295; -342.469
410.588;   88.260; -495.285; -510.486
410.878;   39.692; -792.287; -873.482
411.168;  130.180; -481.298; -478.463
411.459;  129.349; -295.283; -242.489
411.749;   71.631; -609.292; -507.474
412.039;   86.880; -755.289; -386.480
412.329;  218.443;   40.722;  132.501
412.619;  226.252;  -62.286; -148.485
412.909;  399.352;  639.711;  594.521
413.199;  396.426; -130.280; -251.495
413.490;  438.893;  521.710;  352.523
413.780;  153.580;-1013.279; -913.496
414.070;  343.536;  -46.276;  235.497
414.360;  396.640; -729.278; -666.498
414.650;  402.313; -726.288; -688.482
414.940;  458.304; -538.280; -441.496
415.230;  841.436;   50.712;   74.519
415.520; 5182.860;  155.730;   66.486
415.809;20031.938; -305.281; -125.493
416.099;15474.852; -388.277; -229.501
416.389; 4037.247;  435.726;  236.494
416.679; 2378.769;   91.738;   85.473
416.969;  423.996; -527.287; -503.483
417.259;  418.481;  341.721;  171.503
417.549;  651.187;  522.718;  318.508
417.838; 1343.601; -205.268; -147.518
418.128; 4287.423;  650.710;  492.522
418.418; 3581.013; -491.272; -579.509
418.708; 2478.272;    9.726;  -48.506
418.997; 9014.043; -474.275; -480.505
419.287; 9309.053; -733.273; -790.507
419.577; 8410.548; -160.283; -123.489
419.866;28643.875; -588.277; -498.501
420.156;30684.557; -242.270;  -55.513
420.446; 5837.537; -112.263;  -26.526
420.735;  967.351; -376.271; -446.512
421.025;  837.639; 1830.722;  315.502
421.314;  863.449; -203.271; -226.512
421.604; 2095.344;   89.732;  233.484
421.893; 1178.046; -705.271; -602.511
422.183;  234.162; -487.263; -461.526
422.472;  378.872;  -36.271; -107.511
422.762;  480.018; -416.266; -379.521
423.051;  263.786; -916.276; -916.503
423.341;  324.305; -491.273; -439.507
423.630;  447.373; -121.265;   15.477
423.919;  376.792;   58.725;   49.495
424.209;  346.267;  -31.263;   56.473
424.498;  454.349;   68.732;  161.483
424.787;  921.480; -535.267; -601.518
425.077; 2970.972;   34.735;   29.478
425.366; 4738.722; -734.262; -744.528
425.655; 7995.880;  639.727;  259.493
425.945;14723.242; -313.247; -268.554
426.234; 8419.093;  117.741;  300.467
426.523; 4209.973;  -86.259; -350.534
426.812; 5772.764;  107.734;  159.480
427.101; 8195.641; -127.269; -323.515
427.390;10812.560;  -55.270;  -86.514
427.680; 3158.041; -624.257; -411.538
427.969;  517.651; -330.255; -301.540
428.258;  341.258; -385.257; -477.536
428.547;  596.891;  449.728;  397.490
428.836; 1568.191; -421.253; -398.543
429.125; 2275.175; -199.259;  -72.534
429.414;  902.287; -330.251; -294.548
429.703; 2583.912; -231.251; -213.548
429.992; 7493.366; -938.250; -828.549
430.281; 4927.505; -397.264; -331.524
430.570;  598.278;  -21.252;   32.454
430.859;  708.448;  279.741;  352.466
431.148;  551.713;  636.752;  631.446
431.437;  358.878;  391.748;  367.454
431.725;  150.935; -544.257; -481.536
432.014;  113.548; -845.253; -756.545
432.303;  395.983; -149.239; -105.569
432.592;  694.961; -460.263; -178.525
432.881;  920.614; -601.248; -437.554
433.169; 4711.452; -343.255;  -61.540
433.458; 9693.414;  445.765;  540.424
433.747; 4301.952; -397.261; -289.529
434.036; 1098.336; -275.242; -280.564
434.324; 1857.977; -395.249; -379.551
434.613; 3029.780;   40.757;  159.437
434.902; 1201.674;  333.760;  439.433
435.190;  918.432;   75.761;  295.431
435.479;  537.238;  -52.245;   83.441
435.767;  172.145; -411.244; -427.561
436.056;  282.782; -340.242; -294.563
436.345;  367.576; -372.240; -223.568
436.633;  396.498;   60.750;  383.450
436.922;  378.728;  208.760;  414.432
437.210;  997.180; -194.236;    1.426
437.499; 3209.563; -583.235; -432.576
437.787; 3559.730; -339.236;  -10.574
438.075;  810.487;   56.761;  162.430
438.364; 1086.439;  -44.238;  250.429
438.652;  659.561; -286.226; -138.592
438.941;  174.053;    3.770;  269.415
439.229;   44.126; -665.252; -466.545
439.517;   71.695; -160.234;  -85.577
439.806;   23.151; -501.225; -290.595
440.094;  242.552;  377.766;  650.421
440.382;  299.181; -653.233; -302.580
440.670;  308.712; -361.235; -285.576
440.959;   58.667; -347.223; -170.599
441.247;  105.914; -151.229; -109.587
441.535;  158.269; -266.235;   31.423
441.823;   67.775; -497.234; -305.578
442.111;  230.743;  173.771;  327.412
442.400;  764.087; -628.245; -335.559
442.688; 2179.852; -111.234; -620.579
442.976; 1645.824; -786.213; -450.617
443.264;  169.657; -324.224; -364.597
443.552;  147.238; -258.226;   51.408
443.840;  199.343;  602.765;  876.423
444.128;  129.080;  265.767;  269.420
444.416;   18.570; -694.228; -312.588
444.704;   56.720; -465.219;  -92.605
444.992;  107.215;   -0.226;  240.407
445.280;   69.479; -517.230;  -94.585
445.568;   80.327; -694.212; -396.618
445.856;  490.855; -174.221;  357.398
446.143; 1099.216;  -54.220;   -7.604
446.431;  905.824;  -25.228;  625.411
446.719;  303.762;  489.783;  675.391
447.007;  209.524;  481.769;  705.416
447.295;  185.564;  597.777;  871.402
447.583;  121.537; -464.229;  -34.587
447.870;  207.102; -434.221; -202.601
448.158;  541.478; -104.230;  129.415
448.446;  437.042; -800.219; -338.604
448.733;  204.534;   13.776;  269.403
449.021;  284.751;   60.788;  341.382
449.309;  197.890; -296.210;  208.379
449.596;  218.984;  128.783;   59.392
449.884;  160.021; -571.222; -325.600
450.172;  126.053; -756.227; -406.590
450.459;  360.158;  645.786;  780.387
450.747; 1746.983; -411.218; -147.608
451.034; 5483.750;  493.772;  889.411
451.322; 4533.286; -413.214; -170.614
451.609;  420.260;  292.777;  508.403
451.897;  464.499; -550.203; -183.634
452.184; 1368.490; -622.223; -400.598
452.472; 1339.660;   97.792;  269.375
452.759;  351.993;  512.781;  864.395
453.047;  142.249; -407.212; -125.617
453.334;  114.625; -732.219; -216.606
453.621;  131.963; -438.214; -161.615
453.909;  165.116;   13.796;  384.368
454.196;  138.733; -299.199; -123.641
454.483;  250.086;  317.798;  540.364
454.771;  184.138; -215.208;  196.374
455.058;   38.066; -316.207;  102.374
455.345;   94.109;   71.807;  344.347
455.632;   81.744; -128.207;  235.373
455.919;   63.404;  -82.196;  182.354
456.207;  -45.013; -774.198; -450.642
456.494;   -4.778; -475.200;  -66.639
456.781;   29.807; -399.202; -198.635
457.068;   62.650; -253.206;  -29.628
457.355;    9.226; -698.206; -401.629
457.642;    8.456; -552.205; -290.630
457.929;   18.851; -778.194; -417.651
458.216;   58.024; -575.212; -354.617
458.503;  164.905; -173.193;  -19.652
458.790;  150.886; -864.208; -630.625
459.077;  251.436;  -77.202;  110.364
459.364;  633.845; -350.195; -210.649
459.651; 1314.673;  -46.206;  220.372
459.938;  647.227; -864.209; -665.623
460.225;  194.914;  132.799;  276.363
460.512;  -26.498; -836.197; -688.645
460.799;  132.457;  -32.218;  320.392
461.086;  121.426; -370.200; -251.640
461.372;   78.438; -509.198; -279.642
461.659;  158.655; -165.196;  108.354
461.946;   91.429; -445.193;  -54.651
462.233;  256.974;  842.800;  888.361
462.519;  314.646; -814.201; -464.639
462.806;  833.877; -768.197; -497.645
463.093;  698.548; -445.191;  -66.656
463.380;  -30.289; -920.186; -824.664
463.666;   68.354; -259.197;  -18.646
463.953;   99.340; -406.195; -243.648
464.239;  159.815; -173.195;  -77.648
464.526;  412.125;  413.806;  743.350
464.813;  397.659; -565.190; -304.658
465.099;  400.530;  606.807;  607.348
465.386;  400.359;  903.807;  921.348
465.672;   80.402; -694.197; -522.645
465.959;   83.801; -598.188; -520.662
466.245;   42.884; -468.193; -359.652
466.532;  115.688; -109.195;   63.352
466.818;  107.936; -357.186; -216.664
467.104;   22.273; -488.182; -415.672
467.391;   -0.389; -628.189; -459.658
467.677;   42.540; -289.186;    9.335
467.964;   45.642; -682.189; -471.660
468.250;  103.192; -331.186; -160.665
468.536;  103.412;   90.811;  180.341
468.822;  -13.372; -821.184; -574.668
469.109;  143.323;  351.827;  471.311
469.395;  201.793;  729.808;  787.346
469.681;  188.465;   46.811;  156.341
469.967;  983.744; -699.188; -382.660
470.254; 2079.301; -494.188; -306.662
470.540; 1339.829; -601.196; -476.646
470.826;  181.634; -488.181; -397.675
471.112;  270.031;  288.816;  113.331
471.398;   98.111; -253.183;  -58.670
471.684;   51.185; -626.177; -447.680
471.970;   -1.813; -918.180; -981.675
472.256;   24.917; -521.192; -441.654
472.542;   32.933; -499.171; -434.691
472.828;   53.745; -743.182; -607.672
473.114;   50.024; -380.166; -283.700
473.400;   43.075; -504.175; -293.684
473.686;   65.729; -452.166; -400.701
473.972;   92.539; -230.174; -131.687
474.258;  -53.577; -925.173; -843.689
474.544;  142.352; -183.178;   -2.679
474.830;  203.777;  -65.175;   45.316
475.116;  297.860; -123.190; -196.658
475.401;  435.164; -558.180; -467.676
475.687;  155.388; -725.180; -718.676
475.973;   31.302; -673.181; -770.673
476.259;  297.229;  736.825;  764.315
476.544;  333.242; -539.176; -437.682
476.830;  553.630; -398.172; -322.690
477.116;  440.291; -430.177; -336.682
477.401;  126.739;  346.820;  358.324
477.687;   -6.450; -289.175; -405.684
477.973;   44.605;   21.819;   28.326
478.258;   -9.652; -448.163; -348.706
478.544;   63.772;   21.815;   61.334
478.829;  -40.987; -818.171; -738.692
479.115;  -28.471; -749.172; -651.690
479.401;   -3.415; -444.174; -449.686
479.686;   33.563; -253.180;  -74.676
479.972;  -44.293; -886.178; -776.680
480.257;   39.325; -258.166;  -65.700
480.542;    9.442; -614.170; -469.693
480.828;  238.699; 1288.824; 1392.317
481.113;  -11.878; -464.176; -426.683
481.399;    0.270; -236.161; -202.711
481.684;  -40.926; -620.166; -462.700
481.969;   32.058; -158.159;  -73.713
482.255;    9.602; -439.169; -285.695
482.540;    1.132; -569.178; -441.680
482.825;   10.957; -395.187; -404.663
483.110;   78.180;  -85.169; -105.696
483.396;  107.053; -840.157; -652.718
483.681;  338.564;  543.826;  730.313
483.966;  102.252; -696.160; -700.712
484.251;    1.638; -404.174; -310.687
484.536;    3.834; -356.165; -378.703
484.822;   25.641; -205.173; -218.687
485.107;  -20.612; -599.152; -502.726
485.392;  134.965;  662.836;  541.296
485.677;   79.464;  354.832;  163.302
485.962;  130.550;  160.843;  270.283
486.247;  103.306;  -14.162;   -8.707
486.532;   49.526; -178.166; -325.701
486.817;  167.690;  381.839;  431.291
487.102;  108.572; -453.154; -514.722
487.387;  453.504; -637.156; -652.718
487.672;  789.269; -154.164;  -38.705
487.957;  508.047; -394.160; -286.711
488.241;  158.279; -290.150; -314.729
488.526;  499.364; -280.152; -148.726
488.811;  797.409; -881.177; -818.680
489.096;  610.475; -666.154; -702.723
489.381;  381.236;    3.847;  162.275
489.666;  234.295; -428.161; -510.710
489.950;  157.203;  558.846;  627.277
490.235;  -12.926; -480.151; -458.728
490.520;  -39.831; -756.161; -723.710
490.804;  -56.819; -827.156; -736.719
491.089;  -11.357; -469.149; -299.732
491.374;   40.143; -132.164;  -75.704
491.658;   -2.321; -817.147; -717.735
491.943;  193.043; -657.152; -609.727
492.227;  273.943; -178.155;  -38.721
492.512;   53.400; -294.157; -341.717
492.797;  -69.613; -713.149; -716.731
493.081;  -42.269; -588.147; -598.735
493.366;  -46.154; -751.161; -635.711
493.650;  201.805;  831.859;  917.254
493.935;   22.253; -648.147; -447.734
494.219;  -46.931; -778.142; -687.743
494.503;  -51.092; -585.150; -487.730
494.788;   44.617;   46.842;   74.285
495.072;   91.080;  184.850;  434.271
495.356;  137.521; -463.148; -343.733
495.641;  402.087; -812.146; -736.736
495.925;  412.036; -976.156; -903.719
496.209;   41.418; -599.149; -451.732
496.494;  -25.931; -763.142; -544.744
496.778;   13.672; -364.154; -360.722
497.062;  -49.515; -819.156; -627.719
497.346;  -44.702; -869.160; -640.711
497.631;  126.699;  580.852;  560.266
497.915;   72.947;  -64.145;  175.261
498.199;   55.753; -341.157; -277.718
498.483;   54.088; -562.152; -508.725
498.767;  154.031;  301.850;  300.271
499.051;  129.165; -126.149; -100.732
499.335;    0.664; -693.149; -739.731
499.619;  -30.126; -381.129; -423.767
499.903;   33.442; -272.155;  -65.721
500.187;   18.579; -588.153; -316.724
500.471;   28.943; -796.152; -595.727
500.755;  108.669;   62.839;  -96.710
501.039;   34.743; -270.155; -357.721
501.323;  105.982;  -21.141;  264.254
501.607;   59.724; -447.163; -503.706
501.891;   16.254; -607.156; -512.718
502.174;  -22.918; -726.144; -585.741
502.458;   69.121;   89.849;  370.273
502.742;   34.929; -180.138; -191.751
503.026;   66.828; -412.147; -254.734
503.310;  100.432; -437.159; -375.713
503.593;   77.929; -464.147; -325.735
503.877;  107.741; -232.133; -156.760
504.161;  182.181;    2.847;  -50.724
504.444;  108.294; -841.158; -710.716
504.728;  293.242; -487.164; -522.704
505.012;  501.953; -257.150;  -76.729
505.295;  393.945; -417.161; -212.711
505.579;  376.585; -256.156; -496.719
505.862;  501.294; -555.145; -333.738
506.146;  462.084; -681.159; -758.714
506.429;  304.159;  568.841;  461.286
506.713;   38.975; -732.151; -667.728
506.996;  235.022;   90.846;  295.278
507.280;  231.638; -633.165; -474.703
507.563;  171.191; -469.155; -261.721
507.847;   49.530; -423.153; -112.724
508.130;   58.871; -665.161; -456.711
508.413;   67.071; -758.167; -577.700
508.697;  172.546; -151.167;   12.300
508.980;   93.731; -422.153; -312.724
509.263;  -16.637; -466.155; -450.720
509.547;   23.153; -124.150;   82.271
509.830;   54.123; -172.160;  140.289
510.113;   89.185;  128.844;  298.281
510.396;   41.811; -530.152; -300.725
510.680;  268.170; -818.145; -812.738
510.963; 1004.451;  184.846;  180.277
511.246;  940.685; -493.150; -357.730
511.529;  282.549; -482.145;  -83.739
511.812;  250.838; -250.134;   10.241
512.095;  154.123; -740.151; -396.728
512.378;   55.033; -317.147; -245.736
512.661;   -4.064; -703.137; -623.753
512.944;   14.421; -750.142; -637.744
513.227;   60.634; -170.137; -171.752
513.510;   13.007; -479.144; -671.741
513.793;   36.511; -485.140; -435.747
514.076;  135.618;  -43.127;  -39.771
514.359;   95.143; -294.149; -135.732
514.642;   73.523; -442.142; -567.744
514.925;  523.635;  581.860;  561.253
515.208;  654.310; -498.134; -443.758
515.491;  439.323; -276.133; -182.761
515.773;  252.711; -410.143; -337.742
516.056; 1417.292;  249.864;  409.246
516.339; 2055.121; -754.136; -652.755
516.622; 1943.058; -518.150; -488.730
516.904; 1762.367;  882.857;  975.257
517.187;  805.282; -730.138; -523.752
517.470;  374.291; -568.143; -510.743
517.752;  293.823; -624.136; -470.756
518.035;  220.996; -708.139; -725.749
518.318;  240.796; -799.136; -744.755
518.600; 1578.526; -300.132; -325.762
518.883; 2171.923;  310.858;   88.256
519.165; 1094.651; -585.138; -426.751
519.448;  370.301;  -61.132;  -19.762
519.730;  203.850; -573.126; -415.773
520.013;  342.294;  588.867;  664.240
520.295; 1229.965;  -94.134;  -15.759
520.578; 2738.863; -335.131; -305.764
520.860; 2998.601; -254.132;   56.238
521.143; 1457.875; -763.135; -584.756
521.425;  445.637; -251.125; -279.775
521.707;  513.044; -622.127; -380.771
521.990; 1235.169; -199.127;  167.229
522.272; 1406.363; -116.140;   -4.748
522.554;  786.761; -237.143; -157.742
522.836;  453.463;  -24.134;   99.241
523.119;  238.727; -496.148; -189.734
523.401;  147.869; -448.130; -314.766
523.683;   46.262; -865.137; -693.753
523.965;  197.731;  408.862;  260.248
524.247;  191.282;   54.878;  170.220
524.529;  157.265; -451.134; -367.759
524.812;  295.521;   -3.130;  191.234
525.094;  568.030; -773.138; -631.751
525.376;  920.021; -143.124;   78.223
525.658;  543.468; -441.136; -339.754
525.940;    1.235; -805.131; -671.764
526.222;   59.646; -188.136;  -88.755
526.504;  154.708; -190.131;   32.237
526.786;  276.717; -960.133; -647.760
527.068;  449.251; -124.123;  -67.778
527.349;  219.965; -865.137; -774.754
527.631;  132.700; -137.132;   22.238
527.913;   67.918; -664.127; -450.771
528.195;   73.806; -761.125; -639.774
528.477;  156.110;  -93.134;  -30.758
528.759;   68.246; -648.130; -522.766
529.040;   12.749; -569.123; -293.778
529.322;   41.608; -235.125;  -10.774
529.604;  159.898;  -47.130;   93.233
529.886;  177.900; -546.126; -302.773
530.167;  150.765;  232.870;  192.235
530.449;   44.108;    1.853;   63.265
530.731;   -4.969; -572.122; -459.779
531.012;   24.200; -513.120; -216.784
531.294;   38.986; -118.116;  -43.792
531.575;  118.762;  290.875;  538.225
531.857;   10.055; -548.135; -266.757
532.138;   74.156; -113.141;   40.254
532.420;  201.927;  294.865;  403.244
532.701;  277.969; -722.133; -751.760
532.983;  430.622;  232.867;  182.239
533.264;  150.823; -243.126;  175.228
533.546;  -28.104; -491.136; -508.755
533.827;   49.891;  173.867;   -1.759
534.109;   58.305; -352.135;  -80.757
534.390;  102.879; -725.132; -582.762
534.671;  245.577; -270.135;  -82.756
534.953;  123.552; -751.123; -611.779
535.234;   14.822; -426.117; -255.789
535.515;  -77.492; -891.119; -735.785
535.796;  -28.986; -431.128; -193.770
536.078; -120.780;-1050.124; -904.777
536.359;   12.153;  -22.123;    3.221
536.640;   -3.918; -480.125; -197.774
536.921;  155.603;  225.871;  143.232
537.202;  285.827;  -87.138;  -16.751
537.483;  330.862;  251.869;  377.236
537.764;  132.440;   17.870;   98.235
538.045;  -48.566; -543.134; -371.758
538.326;  -35.021; -596.129; -447.768
538.607;  -22.831; -686.127; -476.771
538.888;  114.767;   98.879;    5.218
539.169;  113.362; -704.122; -535.781
539.450;  280.277;  236.871;   16.233
539.731;  170.671; -361.121; -182.783
540.012;  131.700;  199.880;  412.216
540.293;   90.840;   82.876;  158.224
540.574;   23.680; -895.113; -717.796
540.855;  427.369;  435.879;  377.218
541.136;  462.859;   47.878;  139.220
541.416;  238.321; -161.130; -220.766
541.697;  142.783; -274.131; -170.763
541.978;  698.254; -270.135; -315.757
542.259;  889.469; -211.127; -236.771
542.539;  441.931; -191.116; -186.790
542.820;  192.437;  461.875;  480.225
543.101;  139.996;  -52.145;  -77.738
543.381;   30.469; -638.127; -591.771
543.662;  193.942;  159.873; -254.771
543.942;  364.765; -751.127; -830.770
544.223;  727.836;  193.878;  161.219
544.504;  464.595; -275.124; -182.777
544.784;  420.725; -592.126; -408.773
545.065; 1219.334;  104.884; -254.791
545.345; 1439.608;  227.881;   14.215
545.626;  912.955;  -14.113; -108.796
545.906;  605.640;   77.869;   98.235
546.186;  238.404;   92.874;  -95.773
546.467;  144.922;   99.877;  -95.778
546.747;  236.755;  264.884;  327.210
547.027;  263.019;   91.876;  111.223
547.308;  211.164; -376.127; -530.770
547.588;  291.430;  299.871;  371.232
547.868;  168.541;  458.870;  588.235
548.149;  163.716;  609.885;  593.207
548.429;   77.493; -347.127; -299.771
548.709;  100.350; -645.120; -461.784
548.989;  329.592;   84.882;   88.213
549.269; 1434.599;   10.868;  139.239
549.550; 3234.176;  215.877;  117.222
549.830; 2894.921; -758.111; -556.799
550.110;  568.778; -468.110; -320.801
550.390;  561.431; -128.122;  -56.779
550.670;  732.501; -868.114; -783.795
550.950;  534.719; -509.121; -471.782
551.230;  165.465;  549.879;  460.218
551.510;  -24.657; -381.121; -326.782
551.790;   10.886; -173.109; -127.803
552.070;  229.072;  940.877; 1181.223
552.350;  239.437; -492.119; -377.786
552.630;  381.663;   -2.121;   77.219
552.909;  234.710;  181.884;   73.209
553.189;  146.080;  -49.132;   33.237
553.469;  108.961; -703.119; -514.786
553.749;   92.646; -469.127; -357.772
554.029;  109.026;   33.883;  -24.790
554.308;   69.970; -154.115;  -37.794
554.588;   42.463; -196.128; -204.770
554.868;   31.745; -366.121;  -47.782
555.147;   94.067; -114.115;  -46.793
555.427;  378.412; -260.116; -250.792
555.707; 2589.665; -284.115; -200.793
555.986; 3079.974; -719.111; -538.800
556.266; 1604.204;   23.884;   72.210
556.546;   38.618; -888.121; -675.782
556.825;  136.324; -657.114; -556.794
557.105; 1163.386; -125.128;   17.230
557.384; 1387.783;  122.884;  187.209
557.664;  490.361; -717.116; -508.792
557.943;   51.294; -557.121; -411.782
558.222;   90.670; -345.118; -344.788
558.502;  188.593; -116.115;  -76.793
558.781;  336.789;  194.885;  499.208
559.061;  256.719; -232.118; -227.788
559.340;  192.599;  302.883;  353.211
559.619;  450.929;   93.884;  148.210
559.899;  652.126; -239.117; -266.789
560.178;  584.143; -778.115; -593.793
560.457; 2036.877; -623.117; -562.790
560.736; 2866.526; -472.111; -482.800
561.015; 1911.909; -500.128; -502.769
561.295;  282.879;  180.893;  215.193
561.574;  273.866;  119.885;  116.207
561.853;  385.639;  274.891;  303.197
562.132;  330.145;  -45.114;  182.206
562.411;  309.364;  396.879;  553.219
562.690;   58.314; -592.115; -458.792
562.969;  115.561;  472.888;  630.203
563.248;  469.437; 2966.878; 2487.219
563.527;  163.025; -290.111; -408.800
563.806;  226.418; -650.127; -521.771
564.085;  276.493; -297.105; -206.810
564.364;  118.254; -594.117; -405.790
564.643;  316.189; -276.121; -223.781
564.922; 1219.009;  221.890;  397.198
565.201; 1204.712; -640.109; -700.803
565.479;  493.188; -297.115; -219.792
565.758;  193.562; -810.128; -712.770
566.037;  330.663; -155.109; -100.803
566.316;  157.484; -286.116;  -28.791
566.595;   20.865;  -17.115;  -12.793
566.873;   81.352; -166.111;  -79.801
567.152;  -68.639; -490.113; -590.797
567.431;   -6.020; -113.116;    6.210
567.709;    5.104; -344.107; -212.807
567.988;  140.199; -810.114; -769.794
568.266;  358.740; -160.115;  -68.793
568.545;  238.486; -644.100; -514.819
568.824;  385.087;  160.885;  356.208
569.102;  309.723; -351.114; -235.794
569.381;  105.737; -492.116; -407.792
569.659;  -54.593; -553.113; -553.796
569.938;   -4.665; -743.122; -465.780
570.216;   65.041; -225.109; -225.804
570.494;  -47.449; -632.114; -572.795
570.773;   27.243;  202.879;  114.218
571.051;  -24.000; -373.123; -357.778
571.330;   25.130; -221.113; -174.796
571.608;    6.453; -181.098; -173.823
571.886;  -80.705; -671.111; -581.799
572.164;  -90.130; -739.121; -621.782
572.443;  -37.054; -562.105; -512.811
572.721;  -48.098; -399.117; -289.790
572.999;  -28.953; -280.117; -168.788
573.277;   71.140;  379.894;  620.191
573.555;  180.867;   94.894;   37.190
573.834;  846.021;  -86.117; -114.788
574.112; 1051.981;  880.893;  811.193
574.390;  296.451; -143.111;  -96.801
574.668;   -6.338;  -91.112;  -61.797
574.946;  -26.458; -165.106; -187.810
575.224;    0.737;   71.891;  -16.803
575.502;  -24.168; -200.116; -204.791
575.780;  -89.362; -767.112; -829.798
576.058;  190.725; 1589.889; 1004.200
576.336;  -24.195; -210.110; -129.801
576.614;  -67.512; -511.112; -340.798
576.891;    7.119; -711.115; -823.794
577.169;  300.198; -158.108; -285.805
577.447;  395.106;  169.893;  202.193
577.725;  205.117;  629.888;  854.201
578.003;    1.690;  -71.112; -371.798
578.280;   72.455; -208.104; -242.812
578.558;   38.918; -450.115; -422.793
578.836;  117.576; -210.114; -145.795
579.114;   44.337; -630.112; -670.797
579.391;   67.898;   -6.117;  -18.789
579.669;  -74.455; -595.114; -704.794
579.947;  106.353; -326.107; -127.806
580.224;  179.678; -692.107; -524.806
580.502;  206.806;  127.893;   76.193
580.779;   20.953;  -42.117;   75.210
581.057;  -72.434; -584.109; -470.804
581.334;  -97.507; -726.102; -695.815
581.612;   23.093;   54.895;  511.190
581.889;  -31.319;  -83.101; -129.818
582.167;  -33.306; -298.099; -190.821
582.444; -106.299; -845.102; -814.817
582.721;   98.726;  657.899;  715.183
582.999;   19.866; -326.100; -167.821
583.276;  301.829; -812.123; -713.779
583.553;  424.196; -364.102; -294.816
583.831;   96.627; -607.104; -631.812
584.108;   37.896;  349.892;  174.195
584.385;  -13.157; -122.102;  -98.815
584.662;  -85.823; -651.111; -828.801
584.940;   24.501;  204.889;  204.199
585.217;  -23.518;  -73.113; -303.796
585.494;   27.010;   71.890;  118.198
585.771;  142.192; -250.109; -354.804
586.048;  343.457; -196.113;  -76.796
586.325;  196.454; -721.110; -773.801
586.602;   70.555;  230.896;  213.188
586.879;  -38.237; -499.100; -580.820
587.156;   13.194; -156.105; -331.810
587.433;  -53.026; -701.102; -667.817
587.710;   40.989;  152.888;  234.202
587.987;  211.099; -264.105; -236.811
588.264;  614.165;  315.888;  387.202
588.541; 1009.282;  -61.104;   26.187
588.818; 1970.419;   72.892;  171.196
589.095; 1712.828; -163.104; -174.812
589.371;  267.865; -459.109; -414.804
589.648;   -7.694; -581.107; -437.807
589.925;   -4.273; -517.114; -621.795
590.202;  -20.562; -741.112; -607.798
590.478;   43.950; -166.105;  -73.811
590.755;  162.374; -241.108; -132.806
591.032; 1573.581; -741.110; -699.802
591.308; 2220.815; -732.094; -790.831
591.585; 1133.481; -573.110; -560.802
591.862;   42.850;-1056.102; -950.817
592.138;   17.047; -475.108; -474.805
592.415;   79.656; -486.104; -495.813
592.691; 1028.629;  460.896;  518.188
592.968; 1328.305; -208.098; -123.824
593.244;  600.955; -695.116; -595.790
593.521;   39.325; -105.102;  -42.817
593.797;  -50.918; -810.122; -720.780
594.074;  214.466; -611.096; -588.826
594.350;  507.402;  828.905;  729.172
594.626;  201.027; -303.111; -283.801
594.903;   41.126; -643.101; -645.817
595.179;  124.459;  243.896;  418.187
595.455;   13.857; -136.107; -150.807
595.731;  -11.864;  -19.103;  -38.814
596.008;  -57.978; -464.111; -434.800
596.284;    1.840; -187.100; -242.820
596.560;    6.071; -501.093; -493.833
596.836;  118.596; -173.105;  -70.810
597.112;  204.298; -582.108; -437.805
597.388;  181.289;  -49.097;  -48.826
597.665;   85.659;  437.887;  530.203
597.941;  -82.527; -572.089; -658.839
598.217;   -2.791; -323.110; -293.802
598.493;  173.793;   61.891; -204.804
598.769;  341.585; -175.100;  -50.819
599.045;  175.500; -490.108; -562.806
599.321;   23.839; -193.100; -261.820
599.597;   73.542; -355.109; -476.804
599.872;  323.332;  409.896;  429.187
600.148;  226.166;  -61.097; -172.826
600.424;  204.705;   91.893;  202.193
600.700;  161.132; -170.107; -280.807
600.976;   37.160; -442.097; -464.825
601.252;  149.939; -226.109; -272.803
601.527;  102.008; -833.104; -840.813
601.803;   68.776; -453.105; -404.812
602.079;  109.760; -124.100; -118.819
602.354;  362.080; -620.092; -531.835
602.630;  531.182; -140.113; -482.796
602.906; 1523.806; -910.101; -863.818
603.181; 4553.912; -627.119; -534.786
603.457; 3920.614;   98.903; -278.826
603.733;  557.046; -605.120; -626.783
604.008;  653.468; -245.106; -164.810
604.284; 2105.502; -636.101; -580.817
604.559; 1831.342;   -3.112;  -42.799
604.835;  322.546; -163.105; -225.810
605.110;  251.569; -732.099; -892.821
605.385;  464.573;  224.907;  267.167
605.661;  397.154; -625.095; -729.829
605.936;  729.976; -664.108; -737.806
606.211;  660.117;  -17.103; -170.815
606.487;  114.522; -329.114; -376.794
606.762;  -24.438; -791.119; -745.786
607.037;  -58.454; -501.105; -433.810
607.313;  -77.427; -589.096; -574.828
607.588;  -14.007; -375.106; -137.810
607.863;   12.005;  -28.101; -143.818
608.138;  142.558;  513.890;  516.198
608.413;   -4.877; -576.099; -592.822
608.688;   -8.253; -203.108; -267.805
608.964;   94.287; -509.106; -218.809
609.239;  137.943; -107.105; -212.810
609.514;  172.751;  281.895;  240.188
609.789;  412.505; -187.104; -716.812
610.064;  572.272; -435.096; -609.827
610.339;  540.640; -855.109; -799.804
610.614;  732.665; -131.100; -315.820
610.889;  410.726;  215.895;  107.188
611.163;    3.201; -407.104; -591.812
611.438;   40.198;   81.886; -167.794
611.713;  -21.798; -467.101; -499.817
611.988;   18.904; -144.101; -328.818
612.263;  -50.307; -771.102; -717.815
612.538;  149.757;  385.887;  251.204
612.812;   58.716; -832.100; -911.820
613.087;   57.803; -358.098; -338.823
613.362;  -73.568; -497.107; -557.807
613.637;   30.538;  261.897;  138.186
613.911;  -31.270; -256.092; -345.835
614.186;   47.931; -249.107; -292.807
614.460;  401.667; -842.081; -758.854
614.735;  476.144;  -55.087;  -17.843
615.010;   80.935;   43.912;  -82.841
615.284;  182.097;  360.892;  246.195
615.559;  203.829; -792.092; -955.835
615.833;  200.746;  -76.099;  -87.822
616.108;  -25.235; -225.090; -390.837
616.382;   98.221;  274.913;  402.156
616.656;   87.441; -241.090; -232.837
616.931;  310.321; -785.099; -700.822
617.205;  696.933; -973.104; -979.813
617.480;  654.535;  -91.125;    6.225
617.754;   76.883; -396.125; -128.774
618.028;  -22.319; -369.129; -382.768
618.302;   37.870;   73.892;  -25.805
618.577;  -75.986; -371.103; -518.815
618.851;  -83.438; -399.109; -600.803
619.125;  -61.710; -335.134; -378.759
619.399;  -43.116; -244.104; -374.813
619.673;  -67.338; -330.115; -515.792
619.947;  -56.049; -333.114; -448.795
620.222;  -50.647; -198.110; -204.801
620.496;  -25.581;  -47.121;  -96.782
620.770;   -6.563; -187.122;  -93.781
621.044;  156.094;  323.895;  346.190
621.318;  485.522; -653.120; -614.783
621.592;  437.145; -430.121; -409.783
621.866;  196.993; -476.112; -572.799
622.140;   -7.068; -207.116; -356.791
622.413;   29.997;  138.889;  112.200
622.687;  -61.848; -746.101; -492.817
622.961;    1.796; -130.108; -143.805
623.235;  -73.002; -633.111; -661.800
623.509; -126.675; -816.105; -848.811
623.783;  -11.847;  -12.107;   48.193
624.056;  -46.077; -254.120; -280.783
624.330;   31.687;   63.888;   -3.797
624.604;   11.304; -271.116; -355.790
624.877;   33.032;  180.890;   26.198
625.151;   14.646; -249.114; -238.794
625.425;  -54.215; -150.103; -283.814
625.698;  -64.869; -367.119; -374.785
625.972; -101.441; -799.110; -765.802
626.245;   55.980;  685.884;  484.210
626.519;  -59.973; -426.120; -340.784
626.792;  -28.818; -192.107; -380.807
627.066;  -91.895; -485.122; -662.779
627.339; -115.244; -736.110; -663.802
627.613;   24.775;  351.880;  148.216
627.886;   39.511;  187.891; -612.803
628.160;  -24.653;  312.880; -161.783
628.433;  -92.687; -695.125; -703.775
628.706;  -78.998; -517.120; -615.784
628.979;   24.994;  296.876;  117.223
629.253; -118.964; -785.119; -833.786
629.526;  200.373; -334.126; -253.772
629.799;  194.650; -641.123; -479.778
630.072;   69.957; -497.128; -516.769
630.346; -106.270;-1115.116;-1080.790
630.619;  269.308; -467.107; -545.808
630.892;  435.123;  709.889;  593.200
631.165;  225.184;  790.896;  679.187
631.438; -112.035;-1092.112;-1055.798
631.711;   28.278;  453.877;  257.221
631.984;  -80.424; -523.117; -624.789
632.257;  -81.502; -636.117; -681.789
632.530;  -63.968; -412.119; -433.785
632.803;   31.419; -109.115;    7.207
633.076;  -81.278; -360.123; -422.777
633.349;    0.461;  173.872;  121.231
633.622;  -51.919; -187.119; -240.785
633.895; -136.027; -903.120; -823.783
634.167;  -82.100; -496.126; -525.773
634.440;  -22.464;  -19.116; -137.792
634.713;   -8.440;  -22.119; -120.786
634.986;   71.076;  593.871;  453.233
635.258;  -87.857; -507.115; -597.793
635.531;   87.569;  742.882; -343.788
635.804;  -23.550; -303.117; -318.789
636.077;  -86.292; -830.116; -852.791
636.349;  -36.009; -586.115; -474.793
636.622;  328.598; 1695.874; 1392.228
636.894;  118.302; -474.120; -909.784
637.167;   46.917; -836.127; -789.771
637.439;   15.264; -278.128; -213.770
637.712;  -62.226; -312.126; -293.772
637.984; -100.292; -635.116; -707.791
638.257;  308.873;  515.877;  488.222
638.529;  390.964; -881.125; -924.776
638.802;  157.932; -508.128; -449.769
639.074; -123.414; -927.122; -952.781
639.346; -136.543; -942.135; -930.757
639.619;   -5.653;  -79.142; -319.744
639.891;  -14.470;  -83.122; -168.779
640.163;  -95.768; -689.122; -756.780
640.435;   17.683;  273.878;  103.220
640.708;   -1.065;  -72.122; -132.780
640.980;  -42.138; -366.122; -362.781
641.252;  149.313;  -25.121;  -71.781
641.524; 1448.815;  580.879;  573.219
641.796; 1429.592;-1094.121; -907.782
642.068;  245.744; -191.121; -300.782
642.340;  -70.080; -486.121; -566.783
642.613;   29.547;  294.880;  323.217
642.885;  -99.901; -787.120; -878.783
643.157;  -78.100; -810.120; -658.784
643.428;   35.552;  170.880;  218.216
643.700;  -69.446; -498.120; -425.784
643.972;  -44.470;  -16.119; -133.785
644.244;  -92.043; -474.119; -559.785
644.516;  -66.291; -250.119; -114.786
644.788;   58.660;  662.881;  548.214
645.060;  -33.763;  -12.119; -124.786
645.332; -104.186; -525.118; -535.787
645.603;   38.866;  479.882;  342.213
645.875;  -83.258; -334.118; -369.787
646.147;  162.919; 1487.882; 1242.212
646.418; -111.479; -931.117; -918.788
646.690;   22.097; -714.117; -715.789
646.962;   -5.426; -413.117; -451.789
647.233;  -19.274;   15.883;   11.211
647.505; -112.873; -595.117; -475.790
647.776;   28.329;  328.884;  229.210
648.048;  -21.619; -248.116; -418.790
648.320;  -85.343; -752.116; -679.791
648.591; -158.341;-1055.116; -958.791
648.862;  -98.089; -505.116; -577.792
649.134;    7.387;  115.885;  198.208
649.405;  -56.686; -661.115; -618.792
649.677;  -71.434; -475.115; -598.793
649.948;  -25.807; -181.115; -296.793
650.219;  -20.981;  -37.115; -147.793
650.491;  -81.779; -431.114; -520.794
650.762; -112.502; -705.114; -731.794
651.033;  -77.401; -437.114; -424.795
651.304; -102.024; -743.114; -728.795
651.576;  -88.472; -680.114; -645.795
651.847;  -49.371; -250.113; -140.796
652.118;  -25.019;  -32.113; -189.796
652.389; -112.667; -639.113; -722.796
652.660;  -32.966; -147.113;  -89.797
652.931; -151.414; -897.112; -871.797
653.202;  -98.262; -382.112; -541.798
653.473;  -88.736; -633.112; -533.798
653.744;   75.941; -595.112; -590.798
654.015;   66.543; -356.112; -303.799
654.286;  -84.330; -642.111; -663.799
654.557;  -79.129; -586.111; -521.799
654.828; -172.327;-1114.111;-1088.800
655.099;  -79.625; -404.111; -291.800
655.370;  -95.949; -427.111; -543.801
655.641; -120.897; -656.110; -714.801
655.911; -102.445; -618.110; -638.801
656.182;   39.006;  437.890;  387.198
656.453;  111.608;  830.890;  746.198
656.724;  -71.940; -466.110; -426.802
656.994;  -86.414; -553.109; -568.803
657.265; -120.237; -862.109; -873.803
657.536;  -88.160; -500.109; -377.804
657.806; -106.058; -561.109; -593.804
658.077; -141.982; -866.109; -950.804
658.347;  -96.630; -523.108; -598.805
658.618; -115.728; -646.108; -694.805
658.888;  -31.777;  -41.108;  112.195
659.159;  -87.675; -432.108; -548.806
659.429;  -44.048; -292.108; -349.806
659.700;  -19.672; -435.107; -390.807
659.970;  -30.270; -370.107; -359.807
660.241;  -33.118; -754.107; -921.807
660.511;  360.858; -147.107; -174.808
660.781;   36.710; -793.106; -748.808
661.052;  -46.513; -222.106; -381.808
661.322;  -27.637;   21.894;   -9.809
661.592;   -1.035;  257.894;  148.191
661.862;  -79.933; -369.106; -382.810
662.133;  -93.706; -551.105; -502.810
662.403; -117.505; -770.105; -676.810
662.673;  -51.903; -256.105; -213.811
662.943; -114.126; -612.105; -551.811
663.213;  -12.500;  -85.105;  -81.811
663.483;  -74.923; -593.104; -568.812
663.753;  -58.496; -194.104; -152.812
664.023;  -21.395;   68.896;  -32.813
664.293;  -66.568; -319.104; -126.813
664.563; -119.416; -694.104; -648.813
664.833; -132.140; -743.103; -608.814
665.103; -142.588; -730.103; -793.814
665.373; -119.461; -766.103; -806.814
665.643; -115.684; -863.103; -918.815
665.913;  -12.833; -534.103; -714.815
666.182;   75.094; -685.102; -719.816
666.452;  168.246;  -22.102;  -89.816
666.722;  -51.303; -724.102; -784.816
666.992; -135.526; -948.102; -921.817
667.261; -105.574; -824.102; -808.817
667.531;  183.777;  134.899;   45.183
667.801;  461.204; -440.101; -412.818
668.070;  218.806;  714.899;  697.182
668.340; -122.343; -883.101; -840.819
668.609;   69.559;  588.900;  301.181
668.879;  -91.289; -490.100; -558.819
669.149;  -81.863; -539.100; -516.820
669.418; -103.486; -698.100; -726.820
669.688;  -57.634; -482.100; -666.820
669.957;   35.093; -423.099; -546.821
670.226;  -37.756; -268.099; -331.821
670.496; -100.379; -431.099; -635.822
670.765;  -83.902; -418.099; -501.822
671.034; -140.876; -872.099; -828.822
671.304;  -15.949;   55.902; -111.823
671.573; -159.197;-1085.098; -957.823
671.842;   25.754; -380.098; -294.823
672.112;  -25.044; -692.098; -586.824
672.381;  -25.567; -239.098; -214.824
672.650; -150.066;-1005.097;-1021.825
672.919; -107.864; -631.097; -507.825
673.188; -105.812; -681.097; -878.825
673.457; -164.760;-1101.097;-1143.826
673.726;  -90.209; -579.096; -646.826
673.995;  -55.907; -533.096; -479.826
674.265;  -47.855; -263.096; -333.827
674.534;  -18.779; -183.096; -235.827
674.802;  -29.527; -618.096; -703.828
675.071;  666.850; -886.095; -801.828
675.340; 2673.476; -464.095; -339.828
675.609;  891.928;  103.905;   82.171
675.878;  -11.170; -949.095; -893.829
676.147;   21.306;  -26.095;   -8.829
676.416;   41.133; -210.094; -294.830
676.685;  524.235; 1000.906; -622.830
676.953;   33.311; -603.094; -452.831
677.222;  -38.937; -193.094; -273.831
677.491;  -29.610;  -24.094; -127.831
677.759;  -29.083;   11.907;  172.168
678.028;  -36.357; -279.093; -222.832
678.297;   -6.630;   71.907;  197.168
678.565; -153.678; -898.093; -944.833
678.834;  -50.027; -311.093; -268.833
679.102;  -82.400; -411.092; -391.834
679.371; -154.198; -898.092; -727.834
679.639; -135.297; -797.092; -786.834
679.908; -130.195; -794.092; -724.835
680.176; -153.893; -895.091; -941.835
680.445;  -88.617; -346.091; -352.835
680.713;  -28.965;  -58.091;  -23.836
680.982; -107.338; -523.091; -525.836
681.250; -112.637; -578.091; -507.837
681.518; -106.735; -534.090; -751.837
681.787;  -47.058; -204.090; -167.837
682.055;  -85.656; -490.090; -422.838
682.323; -153.780; -993.090; -992.838
682.591;   -6.728; -216.090; -538.838
682.859;   23.324;    9.911;  -35.839
683.128;   -8.950;  232.911;  497.161
683.396; -165.873;-1102.089;-1122.840
683.664;  -42.471; -241.089;   21.160
683.932;    1.455;  144.911;  -76.840
684.200;  -99.043; -576.088; -320.841
684.468;  -39.716;  -73.088; -124.841
684.736;  -37.290; -214.088; -175.841
685.004; -131.088;-1024.088; -982.842
685.272;  -89.186; -880.088; -774.842
685.540;  -92.534; -499.087; -557.843
685.808; -102.208; -651.087; -682.843
686.076; -126.056; -894.087; -969.843
686.343;  -98.729; -601.087; -815.844
686.611;    7.572; -195.087; -224.844
686.879;  307.899; -530.086; -553.844
687.147; 2257.626; -483.086; -480.845
687.414;  660.977;  -12.086; -169.845
687.682;  -35.521; -658.086; -757.846
687.950;  223.481;  259.915;  263.154
688.217;  -40.143; -792.085; -760.846
688.485;  -37.016; -632.085; -636.847
688.753;  345.436;  -11.085; -102.847
689.020;   51.187; -820.085; -851.847
689.288; -119.886; -853.084; -787.848
689.555;  -28.734; -195.084; -148.848
689.823;  -53.882; -241.084; -345.849
690.090; -120.056; -546.084; -651.849
690.358; -157.729; -877.084; -897.849
690.625;   -5.577;  120.917;   45.150
690.892;  -85.776; -403.083; -369.850
691.160;  -20.499;   72.917;  -35.850
691.427;   -9.522;  141.917;  130.149
691.694; -151.096; -855.083; -929.851
691.962; -155.194;-1177.082;-1060.852
692.229;  -11.317;  127.918;   56.148
692.496;   55.259;  130.918;  -49.852
692.763;    0.686; -164.082; -201.853
693.031;  -73.762; -739.082; -716.853
693.298;  -60.960; -509.081; -368.853
693.565;  198.816; -155.081; -163.854
693.832;  867.993;   -5.081;   -9.854
694.099;   79.820; -643.081; -642.855
694.366;  -77.004; -882.081; -896.855
694.633;  -74.202; -920.080; -633.855
694.900;  715.325; 4367.920; -114.856
695.167;  298.226; -214.080; -380.856
695.434;   51.478; -646.080; -623.856
695.701;  178.730;  121.921;  -61.857
695.968;  340.781; -365.079; -361.857
696.234;  895.308; -415.079; -646.858
696.501; 9711.860; -776.079; -614.858
696.768; 4934.236; -554.079; -617.858
697.035;  268.338; -632.078; -667.859
697.302;   16.515; -448.078; -552.859
697.568;  -11.658; -458.078; -497.859
697.835;  -57.882; -683.078; -624.860
698.102;  -27.480; -498.078; -407.860
698.368;   71.472;  384.923;  396.139
698.635;  -53.602;  -47.077; -424.861
698.901;  -25.675; -240.077; -348.861
699.168;   35.202; -534.077; -456.862
699.435;   36.803;  -72.077;  -13.862
699.701; -121.220; -868.076; -764.862
699.968;   -4.193;  144.924; -441.863
700.234; -106.192; -783.076; -822.863
700.500;  -66.815; -448.076; -539.864
700.767;   -4.613;   -1.075;   26.136
701.033; -139.737;-1015.075; -963.864
701.299;  -71.485; -450.075; -483.865
701.566;  103.892;  950.925;  763.135
701.832;   15.144;  -31.075;  -76.865
702.098; -117.030;-1054.074;-1034.866
702.365; -117.178;-1098.074;-1030.866
702.631;  -53.451;-1038.074;-1063.867
702.897; 1091.275; -765.074; -676.867
703.163; 1782.802;  348.926;  254.133
703.429;  118.704; -256.073; -273.868
703.695;  -46.070; -796.073; -792.868
703.961;    2.557; -214.073; -210.868
704.227;  -54.116; -630.073; -725.869
704.493;  110.585;  613.927;  510.131
704.759;  -23.188; -565.072; -540.870
705.025;   24.739; -203.072; -194.870
705.291;  -21.584; -666.072; -562.870
705.557;  188.017;  719.928;   34.129
705.823;   32.669; -742.072; -694.871
706.089;  127.421; -307.071; -326.871
706.355;  351.722; -315.071; -244.872
706.620; 5841.399; -776.071; -729.872
706.886; 7555.926; -309.071; -362.873
707.152;  648.752; -818.070; -973.873
707.418;  -27.571;-1153.070;-1186.873
707.683;   -2.194; -550.070; -530.874
707.949;  -39.218; -547.070; -578.874
708.215;    7.459; -129.070; -207.874
708.480;  -32.514; -520.069; -420.875
708.746;   56.687;   68.931;   28.125
709.011;  -70.536; -578.069; -612.876
709.277;  -83.359; -538.069; -543.876
709.542;  -59.557; -428.069; -387.876
709.808;  -12.156;  -59.068;   89.123
710.073;  -83.729; -577.068; -695.877
710.339;  -35.302; -242.068; -228.877
710.604;   27.199; -780.068; -845.878
710.869;  230.501; -277.068; -366.878
711.135;  -97.322; -715.067; -628.879
711.400;  -99.146; -507.067; -608.879
711.665;  -61.519; -404.067; -479.879
711.931; -101.142; -661.067; -677.880
712.196; -123.091; -876.067; -954.880
712.461;   51.836; -402.066; -490.880
712.726;   67.613; -727.066; -771.881
712.991;  -86.510; -647.066; -664.881
713.256;  -60.259; -350.066; -332.882
713.521;  -47.307; -417.065; -381.882
713.787;  -66.705; -454.065; -472.882
714.052;  -33.754; -214.065; -400.883
714.317;  -83.952;-1045.065; -981.883
714.581; 1044.175; -374.065; -268.883
714.846; 1404.876; -822.064; -888.884
715.111;  121.278;  261.936;  257.116
715.376;  -42.170;  -86.064; -223.885
715.641;  -37.544; -365.064; -367.885
715.906;  190.758;   15.936; -551.885
716.171;   94.235;  221.937;  209.114
716.436;    6.886;  -78.063; -104.886
716.700; -112.537; -818.063; -692.886
716.965; -132.035; -794.063; -807.887
717.230;  -76.008; -339.063; -392.887
717.494;  -31.082;  -40.062; -134.888
717.759;  -98.030; -784.062; -640.888
718.024;    1.697;  269.938;  250.112
718.288;   46.398;  685.938;  395.111
718.553; -142.400; -803.062; -977.889
718.817; -151.873; -883.061; -899.889
719.082;  -21.947; -115.061; -125.890
719.346; -142.270;-1000.061; -947.890
719.611;  -43.393; -300.061; -255.891
719.875; -112.542; -568.060; -537.891
720.140;  -76.690; -453.060; -603.891
720.404;   17.837; -136.060; -249.892
720.668;  584.938; -475.060; -411.892
720.933;  222.640;  146.940;  137.108
721.197; -108.433; -667.059; -600.893
721.461; -133.156; -851.059; -826.893
721.725;  -28.305;  -21.059; -250.894
721.990;  -57.028; -284.059; -204.894
722.254;  -28.051;  -26.059; -108.894
722.518;  -87.325; -286.058; -442.895
722.782; -101.498; -743.058; -594.895
723.046;   96.079;  614.942;  570.105
723.310;   15.530;  374.942;  210.104
723.574;  -96.718; -654.058; -614.896
723.838; -109.516; -576.057; -642.897
724.102;  -60.890; -226.057; -239.897
724.366; -143.238;-1032.057; -978.897
724.630; -111.586; -749.057; -571.898
724.894;  -95.209; -722.057; -514.898
725.158;  -13.633;   38.944; -295.898
725.422;  -45.031; -394.056; -327.899
725.685;  -80.154; -441.056; -349.899
725.949;  -96.178; -566.056; -519.900
726.213;  -96.226; -732.056; -811.900
726.477;   69.176;-1020.055; -933.900
726.740;  102.077; -274.055; -104.901
727.004;  279.079; -384.055; -510.901
727.268; 3281.556; -442.055; -400.901
727.531;  888.957; -961.055; -775.902
727.795;  -57.591; -713.054; -673.902
728.059;  -71.989; -552.054; -557.903
728.322; -111.713; -841.054; -669.903
728.586;  -22.861; -692.054; -701.903
728.849;  -91.709; -695.053; -756.904
729.112; -126.332; -812.053; -912.904
729.376; -145.406; -959.053; -905.904
729.639;  -77.529; -536.053; -536.905
729.903; -121.502; -733.053; -699.905
730.166;  -54.301; -437.052; -399.906
730.429;  -41.899; -317.052; -468.906
730.693;  -85.997; -355.052; -894.906
730.956;  179.679;  810.948;  651.093
731.219;  516.681; -310.052; -103.907
731.482;   45.133;-1003.051; -894.907
731.745;   18.584; -794.051; -935.908
732.009;    5.936;  -30.051;   50.092
732.272; -112.287; -904.051; -771.909
732.535;  -51.560; -300.051; -310.909
732.798; -166.459;-1083.050;-1166.909
733.061;  -71.282; -430.050; -456.910
733.324;   -6.680;   31.950; -180.910
733.587;   55.271;  290.950;  365.090
733.850;  -75.852; -973.049;-1050.911
734.113;   14.625;   33.951;   32.089
734.376;  -23.524; -328.049; -447.912
734.639;  191.028; 1188.951; 1011.088
734.901;   36.430; -180.049; -402.912
735.164;  357.056; -883.048; -837.913
735.427;  971.933; -166.048; -355.913
735.690;   87.585; -205.048; -234.913
735.952;  -66.339; -923.048; -925.914
736.215;  -52.512;-1113.048;-1009.914
736.478;   -1.085; -771.047; -774.915
736.740;  160.092;   33.953;  129.085
737.003;  491.293; -658.047; -672.915
737.266; 3034.245;  -94.047;   46.084
737.528;  321.572; -682.047; -660.916
737.791;  254.673; -316.046; -327.916
738.053;  695.900;  465.954;  649.083
738.316; 9813.227; -162.046; -136.917
738.578; 6780.178; -770.046; -736.918
738.841;  370.330; -382.046; -446.918
739.103;  133.207; -875.045; -777.918
739.365;  411.158;   79.955;  -69.919
739.628;  -26.040; -884.045; -805.919
739.890;  -45.913; -758.045; -710.919
740.152;  -62.661; -692.044; -754.920
740.414;  -24.035; -408.044; -359.920
740.677;  -69.158; -785.044; -634.921
740.939;  -57.431; -587.044; -487.921
741.201;  163.495; -432.044; -572.921
741.463;   -5.553; -689.043; -745.922
741.725;   -0.201;  -21.043; -199.922
741.987;   34.600;  220.957;  116.078
742.249;  -38.773; -751.043; -859.923
742.511;  114.379; -703.043; -794.923
742.773;  -11.145; -546.042; -546.924
743.035;  109.732;  796.958;  533.076
743.297;  -70.066; -963.042;-1013.924
743.559;  577.635; -278.042; -262.925
743.821;    4.662; -735.042; -744.925
744.083;  -14.786;  -44.041; -149.925
744.345; -101.184; -869.041; -892.926
744.607;   25.692;   75.959;  122.074
744.868;  -63.806; -490.041; -554.927
745.130; -118.654; -994.041;-1008.927
745.392;   13.847;   -1.040;  -44.927
745.653;  -40.751; -411.040; -378.928
745.915;  127.001;  896.960;  631.072
746.177;   36.977;   35.960;  -43.928
746.438;   -9.671; -428.040; -543.929
746.700;  -84.394; -947.039; -988.929
746.961;  -26.843; -659.039; -740.930
747.223;  116.084; -190.039;  -74.930
747.484;   54.711; -391.039; -471.930
747.746;  102.237;  -23.038; -106.931
748.007;   89.064; -647.038; -689.931
748.269;  213.516; -468.038; -440.931
748.530;  343.593; -852.038; -638.932
748.791;  203.044; -354.038; -420.932
749.053;  353.946;  286.963;  163.067
749.314;  377.423; -236.037; -169.933
749.575;  411.524; -945.037; -905.933
749.836;  683.976; -217.037;   86.066
750.098; 2033.578;  -60.037;  -21.934
750.359;30335.929;  414.964;  555.066
750.620; 7611.631; -121.036; -220.935
750.881;  822.383; -585.036; -513.935
751.142; 1125.159; -950.036; -938.936
751.403;15139.361; -789.036; -705.936
751.664; 6539.713;-1034.035; -999.936
751.925;  431.540; -175.035; -262.937
752.186;  229.641; -298.035; -278.937
752.447;   89.818; -590.035; -445.937
752.708;   31.395; -532.035; -648.938
752.969;  -27.629; -566.034; -576.938
753.230;  -36.327; -777.034; -672.939
753.491;  -47.800; -650.034; -631.939
753.751;   47.401;  109.966;   19.061
754.012;   70.528;  258.967;  181.060
754.273;   29.180; -174.033;  -71.940
754.534;  -18.594; -487.033; -580.940
754.794; -100.492; -926.033; -911.941
755.055;  129.210; 1051.967;  881.059
755.316;  -57.839; -700.032; -566.942
755.576;  -41.787; -606.032; -576.942
755.837;  -65.860; -527.032; -695.942
756.097;  -63.608; -530.032; -564.943
756.358;  -78.207; -725.032; -770.943
756.618;  -62.305; -705.031; -641.943
756.879;  -13.278; -254.031; -349.944
757.139; -130.677;-1098.031;-1116.944
757.400;  -66.425; -538.031; -553.945
757.660;  -40.673; -365.031; -401.945
757.920;   -2.272; -266.030; -228.945
758.181;  -31.995; -468.030; -351.946
758.441; -107.893; -870.030; -809.946
758.701;  -30.517; -308.030; -215.946
758.961;  -44.740; -220.030; -278.947
759.222;  -56.888; -574.029; -502.947
759.482;  -91.761; -683.029; -723.948
759.742;  -92.985; -706.029; -547.948
760.002;    5.192;  -83.029; -143.948
760.262;   22.569;   50.972;  182.051
760.522;  -53.055; -498.028; -574.949
760.782;  -62.503; -738.028; -612.949
761.042;  -23.276; -618.028; -573.950
761.302;   38.875;   55.972;  -18.950
761.562;   38.502; -164.027; -154.951
761.822;   37.354; -710.027; -551.951
762.082;  -68.745;-1104.027;-1093.951
762.342;   50.682; -328.027; -403.952
762.601;   56.509; -567.027; -506.952
762.861;  263.810; -281.026; -207.952
763.121;  359.512; -406.026; -411.953
763.381; 6947.289; -499.026; -485.953
763.640; 7525.341; -139.026; -307.954
763.900;  330.617; -242.026; -203.954
764.160;   72.019; -458.025; -491.954
764.419;  -26.554; -726.025; -782.955
764.679;  -82.203; -795.025; -726.955
764.939;  -22.801; -124.025; -210.955
765.198;  -88.749; -608.025; -563.956
765.458;  -94.098; -710.024; -612.956
765.717;  -82.171; -454.024; -590.957
765.976;  -58.269; -428.024; -411.957
766.236;  -81.318; -475.024; -610.957
766.495;    4.859;  260.977;   73.042
766.755; -115.789;-1090.023; -987.958
767.014;  -37.963; -594.023; -665.958
767.273;  -54.686; -373.023; -397.959
767.533;  -47.509; -228.023; -307.959
767.792;  -33.657; -151.022; -188.960
768.051;  -54.656; -228.022; -276.960
768.310;  -97.779; -546.022; -650.960
768.569;   -6.077; -161.022;    4.039
768.828;  -54.401; -285.022; -363.961
769.088; -132.399;-1050.021; -942.961
769.347;  -93.247; -755.021; -599.962
769.606; -106.021; -876.021; -857.962
769.865; -113.694;-1016.021;-1033.963
770.124;  -18.167; -411.021; -336.963
770.383;  -55.691; -778.020; -910.963
770.641;  -12.289; -398.020; -400.964
770.900;  -80.162; -953.020; -846.964
771.159;  -47.360; -851.020; -951.964
771.418;  -27.484; -917.020; -779.965
771.677;  127.668; -224.019; -293.965
771.936;  143.970; -794.019; -865.966
772.194; 2408.721; -465.019; -437.966
772.453;11282.273; -213.019; -391.966
772.712;  771.500;  416.982;  329.033
772.970;  116.101;   32.982;   63.033
773.229;   81.528;  -22.018;  102.033
773.488;  -80.795; -814.018; -770.968
773.746;   46.431;  296.982;  335.032
774.005;   12.133;  190.983;  -22.969
774.263;   10.635;  243.983;  177.031
774.522;  -32.089; -422.017; -548.969
774.780;  -79.412; -484.017; -417.970
775.039; -104.810; -551.017; -531.970
775.297;  -36.908; -135.016; -351.970
775.555; -118.732; -489.016; -612.971
775.814; -113.955; -618.016; -570.971
776.072; -122.653; -749.016; -740.971
776.330; -107.177; -630.016; -520.972
776.589; -134.925; -703.015; -721.972
776.847; -127.148; -645.015; -624.973
777.105; -157.872;-1016.015;-1032.973
777.363;  -85.845; -459.015; -454.973
777.621; -136.343; -660.015; -717.974
777.879;  -18.117;  -42.014;   32.026
778.138; -105.815; -554.014; -717.974
778.396;  -97.288; -585.014; -526.975
778.654; -168.736;-1015.014; -970.975
778.912;  -76.910; -269.014; -371.976
779.170; -141.458; -880.013; -803.976
779.427; -148.681; -922.013; -897.976
779.685; -144.105; -880.013; -832.977
779.943; -100.078; -654.013; -593.977
780.201; -157.976; -964.012; -883.978
780.459; -131.000; -651.012; -610.978
780.717;  -91.598; -440.012; -390.978
780.974; -106.021; -449.012; -490.979
781.232;  -77.420; -358.012; -338.979
781.490; -110.643; -551.011; -472.979
781.747; -101.691; -555.011; -476.980
782.005;   13.710;  462.989;  254.020
782.263; -161.063; -542.011;-1004.981
782.520; -102.336; -326.011; -501.981
782.778; -169.984;-1013.010;-1051.981
783.035; -181.408; -962.010; -938.982
783.293;  -68.731; -248.010; -206.982
783.550;  -77.029; -134.010; -198.982
783.808; -145.153; -764.010; -776.983
784.065; -166.126; -745.009; -874.983
784.322;  -45.399;   25.991;  -86.984
784.580; -139.373; -915.009; -771.984
784.837;  -99.346; -392.009; -466.984
785.094; -143.519; -783.009; -762.985
785.352;  -81.068; -304.008; -404.985
785.609; -131.991; -934.008; -839.985
785.866; -103.114; -345.008; -401.986
786.123;  -93.563; -639.008; -583.986
786.380; -116.236; -665.008; -604.987
786.637;  -58.809; -225.007; -380.987
786.895;  -39.932; -456.007; -543.987
787.152;  -54.906; -135.007; -267.988
787.409;  -50.679; -123.007; -225.988
787.666;  -90.427; -299.006; -378.988
787.923; -110.876; -616.006; -695.989
788.179; -105.499; -551.006; -584.989
788.436; -113.747; -585.006; -585.990
788.693;  -40.846;  -92.006;  -87.990
788.950;   85.656; -125.005; -112.990
789.207;  119.158; -381.005; -372.991
789.464;  -71.891; -161.005; -301.991
789.720;  -30.739;  150.995;  110.009
789.977; -175.912;-1003.005; -671.992
790.234;  -20.310;   44.996;  -66.992
790.490; -166.009; -884.004;-1031.993
790.747;  -43.407;  -85.004;   22.007
791.004;  -35.880; -426.004; -348.993
791.260;  -84.129; -430.004; -560.994
791.517; -104.177; -843.003; -788.994
791.773;  -76.325; -379.003; -342.994
792.030; -119.274; -596.003; -660.995
792.286; -110.572; -686.003; -636.995
792.543;  -13.145;  -74.002; -159.995
792.799;  -59.894; -584.002; -382.996
793.055; -171.942;-1179.002;-1210.996
793.312; -103.015; -827.002; -816.997
793.568;  -64.939; -746.002; -599.997
793.824;    2.313; -226.001; -284.997
794.081;    6.515; -447.001; -508.998
794.337;   39.317; -664.001; -561.998
794.593; 1178.093; -319.001; -271.999
794.849; 5767.545; -746.001; -772.999
795.105;  268.047; -270.000; -261.999
795.361;   -9.452; -490.000; -457.000
795.617;  -57.675; -875.000; -945.000
795.873;  -65.375; -360.000; -407.000
796.129;  -39.225; -368.000; -306.000
796.385;  -51.950; -124.000; -156.000
796.641;   52.075;  412.000;  550.000
796.897;  -97.825; -666.000; -635.000
797.153;   59.075;  453.000;  357.000
797.409; -104.200; -785.000; -868.000
797.665;  -79.300; -625.000; -732.000
797.921;  -86.000; -775.000; -762.000
798.176;  -72.325; -744.000; -747.000
798.432;  -59.075; -824.000; -596.000
798.688;  -74.475;-1174.000;-1078.000
798.943;   69.575; -165.000; -147.000
799.199;  -11.050;-1005.000; -959.000
799.455;  220.100;  369.000;  316.000
799.710;  115.975; -813.000; -380.000
799.966;  257.500; -162.000; -160.000
800.221;  437.975; -638.000; -721.000
800.477; 9794.975; -743.000; -710.000
800.732; 8509.975; -773.000; -800.000
800.988;  632.450;  205.000;  -19.000
801.243; 2085.725; -454.000; -344.000
801.498; 9145.975; -814.000; -739.000
801.754;  527.725; -289.000; -163.000
802.009;   73.925; -257.000; -335.000
802.264;  -51.350; -967.000;-1033.000
802.520;   29.150;  222.000;   -3.000
802.775;  -45.725; -524.000; -359.000
803.030;   41.425;  395.000;  356.000
803.285; -117.525; -840.000; -903.000
803.540;  -76.825; -686.000; -699.000
803.795;  -66.275; -648.000; -583.000
804.051;  -52.175; -279.000; -346.000
804.306;    4.275;  168.000;  128.000
804.561;  106.900;  451.000;  362.000
804.816;  113.375;  714.000;  861.000
805.071;  -19.075; -185.000; -280.000
805.325;  135.350; -257.000; -427.000
805.580; -119.200; -841.000; -877.000
805.835;  -19.375; -204.000; -297.000
806.090;  -80.400; -760.000; -676.000
806.345;  -32.725; -344.000; -264.000
806.600;  -49.575; -549.000; -632.000
806.854;  -52.200; -408.000; -538.000
807.109;  -29.100; -493.000; -577.000
807.364;  -11.075; -407.000; -328.000
807.618;   -6.200; -415.000; -381.000
807.873;   18.925; -470.000; -494.000
808.128;   61.775; -257.000; -518.000
808.382;   83.000; -224.000; -332.000
808.637;   37.525; -440.000; -511.000
808.891;  155.375; -257.000; -180.000
809.146;   57.000; -902.000; -794.000
809.400;  200.850; -848.000; -923.000
809.654;  254.650; -779.000; -551.000
809.909;  396.250; -841.000; -927.000
810.163; 5496.625; -813.000; -651.000
810.418;14112.700; -940.000; -861.000
810.672;  878.850; -685.000; -690.000
810.926;  635.450; -993.000; -973.000
811.180; 1294.525; -439.000; -372.000
811.434;30192.550;  240.000;  135.000
811.689;11928.800; -231.000; -365.000
811.943;  554.575; -936.000; -953.000
812.197;  278.950; -893.000; -671.000
812.451;   97.900; -379.000; -514.000
812.705;  -39.925; -809.000; -619.000
812.959;   -9.400; -263.000; -388.000
813.213;   -8.650; -283.000; -209.000
813.467;   64.325;  470.000;  253.000
813.721; -116.400; -764.000; -792.000
813.975; -123.550; -826.000; -877.000
814.229;   16.850;  430.000;  353.000
814.482;  -84.300; -517.000; -566.000
814.736; -134.950; -766.000; -744.000
814.990; -128.725; -779.000; -872.000
815.244;  -55.675; -228.000; -285.000
815.497;  -97.600; -636.000; -601.000
815.751;  -26.825; -141.000;   82.000
816.005;  -90.050; -470.000; -586.000
816.258;  -75.100; -510.000; -363.000
816.512; -109.675; -693.000; -610.000
816.766;    1.725;  121.000;  157.000
817.019;    9.500;  148.000;  149.000
817.273; -125.000;-1000.000; -802.000
817.526;  -51.200; -206.000; -173.000
817.779;  -88.800;-1049.000; -960.000
818.033;  -99.600; -693.000; -807.000
818.286; -121.250; -725.000; -792.000
818.540;  -93.800; -403.000; -403.000
818.793;  -94.250; -402.000; -489.000
819.046; -107.100; -582.000; -520.000
819.299;  -54.900; -157.000; -166.000
819.553; -135.800; -552.000; -592.000
819.806; -173.375;-1016.000; -838.000
820.059;  -55.000; -334.000; -354.000
820.312;   -9.400;  152.000;  185.000
820.565;  -21.325;  110.000;  -27.000
820.818;  -50.075;  -59.000; -173.000
821.071; -182.150;-1041.000; -957.000
821.324; -113.350; -536.000; -540.000
821.577; -104.125; -457.000; -483.000
821.830;  -82.650; -270.000; -172.000
822.083; -128.650; -733.000; -288.000
822.336;  -56.475; -261.000; -167.000
822.589; -134.000; -805.000; -688.000
822.842; -158.875; -875.000; -770.000
823.094; -185.925;-1076.000;-1114.000
823.347; -133.850; -925.000; -729.000
823.600;    1.450;  402.000;  187.000
823.853;  -56.400; -311.000; -267.000
824.105;  -88.050; -331.000; -575.000
824.358; -121.700; -617.000; -716.000
824.611;   24.250;  234.000;   40.000
824.863;  -69.750; -612.000; -591.000
825.116;   26.650;  -33.000;   27.000
825.368;   53.925; -366.000; -372.000
825.621;  127.000; -186.000; -240.000
825.873;   62.850; -704.000; -737.000
826.126;  536.850; -669.000; -641.000
826.378;10796.825; -389.000; -505.000
826.630; 2596.450; -890.000; -898.000
826.883;   20.725; -754.000; -693.000
827.135;   21.700; -279.000; -270.000
827.387; -126.000; -893.000; -839.000
827.639;  -32.900;  -86.000;   32.000
827.892; -141.400; -742.000; -582.000
828.144; -147.300; -848.000; -804.000
828.396;  -39.025;  104.000;  -80.000
828.648; -103.800; -440.000; -333.000
828.900; -161.700; -702.000; -795.000
829.152; -122.375; -684.000; -683.000
829.404;  -77.475; -215.000; -267.000
829.656;  -54.800;  321.000;  214.000
829.908;  -20.900;  393.000;  229.000
830.160; -175.550;-1064.000;-1047.000
830.412; -105.100; -481.000; -430.000
830.664; -125.750; -557.000; -665.000
830.916;  -92.075; -268.000; -206.000
831.167; -174.200;-1073.000; -951.000
831.419; -123.600; -623.000; -566.000
831.671; -153.575; -764.000; -809.000
831.923; -108.925; -311.000; -447.000
832.174;  -81.700; -273.000; -331.000
832.426; -119.525; -493.000; -582.000
832.678; -190.175;-1043.000;-1091.000
832.929; -178.400; -947.000; -935.000
833.181; -101.225; -575.000; -677.000
833.432;  -65.750;  -59.000; -186.000
833.684;  -35.500;  112.000;  -27.000
833.935; -123.975; -610.000; -566.000
834.187; -139.250; -829.000; -823.000
834.438;  -59.600;  -58.000;  -25.000
834.689;  -65.250; -255.000; -123.000
834.941;  -68.075; -343.000; -244.000
835.192; -109.000; -590.000; -533.000
835.443; -122.575; -419.000; -506.000
835.695;  -21.225;  138.000;  -16.000
835.946; -101.450; -608.000; -378.000
836.197; -111.650; -599.000; -622.000
836.448; -104.925; -528.000; -395.000
836.699;  -68.050; -253.000; -341.000
836.950;  -13.050;   72.000;    7.000
837.201; -165.750;-1003.000; -987.000
837.452;  -56.425; -356.000; -170.000
837.703; -131.150; -791.000; -737.000
837.954;  -46.900; -205.000; -365.000
838.205; -102.750;-1029.000;-1008.000
838.456;  104.750; -196.000; -282.000
838.707;   -8.800; -423.000; -519.000
838.958;  -17.675; -634.000; -647.000
839.209;  187.700;   18.000;   40.000
839.460;   82.500; -439.000; -201.000
839.710;  141.800; -135.000; -297.000
839.961;  372.750;  730.000;  612.000
840.212;  290.625; -382.000; -497.000
840.462; 1063.025; -328.000; -277.000
840.713;17083.750; -571.000; -536.000
840.964; 6780.625;  -62.000; -143.000
841.214;  434.150; -384.000; -624.000
841.465;  467.300; -214.000; -141.000
841.715;  394.075; -417.000; -380.000
841.966;  495.300; -746.000; -685.000
842.216; 7289.100; -330.000; -431.000
842.466;27714.700; -169.000; -313.000
842.717; 1469.075; -964.000; -952.000
842.967;  221.375; -635.000; -641.000
843.217;  184.050;   20.000;   28.000
843.468;   33.650; -104.000; -132.000
843.718;  -68.875; -718.000; -726.000
843.968; -127.100; -837.000; -765.000
844.218;  -12.450; -315.000; -262.000
844.469;  -77.125; -577.000; -561.000
844.719; -107.350; -537.000; -682.000
844.969; -103.900; -550.000; -580.000
845.219; -137.225; -814.000; -862.000
845.469;  -89.800; -392.000; -342.000
845.719; -139.425; -792.000; -884.000
845.969;  -29.925;  119.000;  174.000
846.219; -139.300; -738.000; -720.000
846.469;   14.850;  464.000;  432.000
846.718;  -49.275; -115.000;   31.000
846.968; -146.000; -827.000; -827.000
847.218;  -63.650; -224.000; -371.000
847.468;    2.200; -586.000; -555.000
847.718; -145.450; -827.000; -798.000
847.967; -139.775; -826.000; -915.000
848.217;  -96.175; -449.000; -569.000
848.467;  -72.975; -405.000; -376.000
848.716; -137.300; -708.000; -725.000
848.966;  -34.225; -372.000; -358.000
849.215;  -72.850; -428.000; -419.000
849.465; -128.350; -785.000; -615.000
849.714; -161.300;-1132.000;-1150.000
849.964;  -86.300; -551.000; -613.000
850.213;  -40.200; -393.000; -355.000
850.463;   72.200;  137.000;  340.000
850.712;  -10.900; -542.000; -567.000
850.961;   -3.300; -739.000; -678.000
851.211;   82.475; -513.000; -504.000
851.460;  134.950; -635.000; -650.000
851.709;  510.600;  -25.000;   18.000
851.958; 9642.425; -912.000; -750.000
852.208;11752.200; -859.000; -879.000
852.457;  409.900; -181.000;  -13.000
852.706;   43.950; -791.000; -823.000
852.955;  -11.175; -507.000; -528.000
853.204;  -74.500; -521.000; -461.000
853.453;  -93.125; -418.000; -458.000
853.702; -140.725; -660.000; -750.000
853.951; -117.075; -532.000; -520.000
854.200; -110.975; -613.000; -562.000
854.449; -152.450; -695.000; -661.000
854.698; -100.825; -340.000; -279.000
854.946;  -83.750; -181.000; -284.000
855.195; -153.725; -843.000; -868.000
855.444; -102.850; -395.000; -420.000
855.693; -126.500; -345.000; -432.000
855.941; -113.800; -387.000; -516.000
856.190;  -64.750; -256.000; -382.000
856.439; -136.500; -652.000; -703.000
856.687;  -70.575;  -99.000;  -72.000
856.936; -126.950; -621.000; -323.000
857.184; -186.050;-1067.000;-1020.000
857.433; -116.700; -423.000; -512.000
857.681; -172.300; -989.000; -953.000
857.930;  -87.550; -282.000; -433.000
858.178; -174.275; -856.000; -929.000
858.427; -155.875; -802.000; -781.000
858.675; -107.950; -377.000; -544.000
858.923; -116.775; -527.000; -819.000
859.172; -178.750;-1094.000;-1070.000
859.420;  -99.375; -339.000; -239.000
859.668; -148.700; -624.000; -628.000
859.916;  -38.125;  109.000;  115.000
860.164; -124.550; -699.000; -603.000
860.413;  152.325; -878.000; -696.000
860.661;  111.625; -709.000; -577.000
860.909;  -95.675; -339.000; -325.000
861.157; -100.100; -277.000; -444.000
861.405; -126.575; -534.000; -670.000
861.653;   16.250;  310.000;  310.000
861.901;   79.500; -543.000; -613.000
862.149;  -49.325; -801.000; -824.000
862.396;  -86.400; -297.000; -187.000
862.644; -105.650; -368.000; -347.000
862.892;  -33.825;   98.000;  138.000
863.140; -129.400; -549.000; -530.000
863.388; -159.250; -815.000; -759.000
863.635; -131.775; -642.000; -601.000
863.883;  -17.225;  231.000;  190.000
864.131; -109.950; -288.000; -357.000
864.378; -138.950; -675.000; -540.000
864.626; -111.025; -347.000; -415.000
864.873; -128.475; -556.000; -505.000
865.121; -131.725; -714.000; -799.000
865.368;  -45.425; -173.000;   75.000
865.616;  -34.275;  -33.000;  -40.000
865.863;  -63.825; -462.000; -506.000
866.111;  -95.850; -795.000; -824.000
866.358;   49.475; -426.000; -420.000
866.605; 2775.475;  -64.000; -804.000
866.853; 2812.200; -621.000; -537.000
867.100;  -25.025; -728.000; -775.000
867.347;  -92.850; -672.000; -611.000
867.594; -108.950; -740.000; -714.000
867.841;   42.750;   97.000;   17.000
868.089; -152.500; -746.000; -698.000
868.336; -124.050; -477.000; -420.000
868.583; -139.500; -637.000; -741.000
868.830;  -56.100; -131.000; -170.000
869.077; -173.300; -859.000; -787.000
869.324; -140.025; -502.000; -458.000
869.571; -127.100; -398.000; -430.000
869.818; -128.475; -485.000; -439.000
870.065; -119.950; -439.000; -513.000
870.311; -126.625; -456.000; -542.000
870.558; -100.125; -332.000; -311.000
870.805;  -95.950; -320.000; -384.000
871.052; -116.600; -494.000; -369.000
871.298;  -68.400; -204.000; -131.000
871.545; -100.825; -151.000; -185.000
871.792;  -80.350; -173.000; -222.000
872.038;  -79.850;   43.000; -126.000
872.285; -125.200; -496.000; -387.000
872.532;  -99.650; -357.000; -387.000
872.778;    2.975;  556.000;  403.000
873.025; -101.750; -384.000; -359.000
873.271;    7.975;  501.000;  578.000
873.517;  -46.550; -133.000; -209.000
873.764;  -44.650; -193.000;  -80.000
874.010;  -85.700; -143.000; -230.000
874.257;  -42.250;  123.000;   90.000
874.503; -146.200; -579.000; -479.000
874.749;  -78.575;   31.000;  275.000
874.995;  -87.150;  -80.000;  -20.000
875.242; -140.275; -540.000; -478.000
875.488; -127.225; -414.000; -439.000
875.734;  -63.025; -106.000; -234.000
875.980;   74.100; -872.000;-1032.000
876.226;  188.700; -157.000; -255.000
876.472;  -27.675;  343.000;  237.000
876.718;  -53.375;  184.000;  158.000
876.964;  -50.725;   56.000;   55.000
877.210; -135.850; -547.000; -677.000
877.456; -144.100; -630.000; -557.000
877.702; -193.425; -821.000; -832.000
877.948; -119.150; -377.000; -497.000
878.193;   -8.625;  361.000;  255.000
878.439; -112.500; -487.000; -472.000
878.685; -104.625; -272.000; -343.000
878.931; -131.625; -618.000; -676.000
879.176;  -90.000; -201.000; -201.000
879.422; -187.825; -933.000; -820.000
879.668;   30.200;   10.000;   79.000
879.913;   80.300;   53.000;  137.000
880.159;  -62.875; -112.000;  -17.000
880.404;  -61.050; -152.000; -162.000
880.650;  -53.225;   91.000;  141.000
880.895; -169.650; -670.000; -710.000
881.141; -123.875; -454.000; -428.000
881.386; -151.375; -503.000; -658.000
881.631;  -83.575; -311.000; -166.000
881.877;  -38.250;  112.000;  -13.000
882.122; -147.975; -684.000; -600.000
882.367;  -93.575; -136.000; -186.000
882.612;  -81.825;  -80.000; -176.000
882.858; -159.625; -877.000; -823.000
883.103;  -97.250; -297.000; -267.000
883.348; -163.300; -759.000; -852.000
883.593; -155.675; -677.000; -602.000
883.838;  -72.625; -311.000;  -24.000
884.083;    4.125;  353.000;  288.000
884.328; -101.350; -564.000; -545.000
884.573;  -74.500; -196.000; -143.000
884.818;   86.200; -694.000; -531.000
885.063;  101.125; -348.000; -315.000
885.308; -113.100; -475.000; -398.000
885.553;  -14.150;  245.000;  325.000
885.797; -132.500; -545.000; -615.000
886.042;  -66.225;    8.000;   58.000
886.287; -102.625; -253.000; -211.000
886.532;  -54.675;   26.000;  204.000
886.776; -100.450; -407.000; -525.000
887.021; -148.125; -621.000; -574.000
887.265; -158.875; -685.000; -689.000
887.510; -145.250; -557.000; -496.000
887.755; -100.500; -194.000; -164.000
887.999; -152.725; -552.000; -575.000
888.244;  -70.950;  -58.000;  161.000
888.488;  -10.575;  371.000;  393.000
888.732; -125.675; -368.000; -520.000
888.977; -143.550; -622.000; -567.000
889.221; -167.125; -683.000; -659.000
889.465; -137.725; -422.000; -566.000
889.710;  -85.375;  -56.000; -299.000
889.954;    2.175;  579.000;  467.000
890.198; -148.325; -584.000; -707.000
890.442; -155.375; -716.000; -712.000
890.687; -165.450; -800.000; -753.000
890.931; -100.400; -273.000; -210.000
891.175; -142.675; -502.000; -500.000
891.419;  -79.975; -105.000; -110.000
891.663;  -83.325; -239.000; -112.000
891.907; -174.075; -801.000; -545.000
892.151; -174.575; -920.000; -815.000
892.395; -112.500; -274.000; -387.000
892.638;  -26.550;  408.000;  291.000
892.882; -182.650; -780.000; -867.000
893.126;   20.275;  758.000;  558.000
893.370;  -95.100; -167.000; -168.000
893.614; -155.200; -714.000; -715.000
893.857; -100.925; -183.000; -197.000
894.101; -138.550; -527.000; -631.000
894.345;  -72.500;  300.000;  150.000
894.588;    0.200;  569.000;  380.000
894.832;  -97.250; -178.000;  -84.000
895.075;  -89.125;   15.000;  -92.000
895.319; -136.950; -552.000; -420.000
895.563; -115.850; -413.000; -353.000
895.806; -150.200; -628.000; -741.000
896.049;  -89.425; -576.000; -368.000
896.293;   59.275;  527.000;  405.000
896.536; -105.800; -465.000; -468.000
896.779;  -74.625; -149.000;   -1.000
897.023; -155.075; -751.000; -714.000
897.266;  -32.550;  325.000;  269.000
897.509; -192.600; -900.000; -901.000
897.752;  -41.975;  149.000;  171.000
897.996; -200.775; -972.000; -864.000
898.239;  -62.025;  168.000;  102.000
898.482; -142.725; -431.000; -453.000
898.725;  -50.000;  101.000;   53.000
898.968; -154.050; -609.000; -744.000
899.211; -134.000; -513.000; -361.000
899.454; -126.950; -633.000; -539.000
899.697;  -89.900;   90.000;  -43.000
899.940; -174.175; -761.000; -757.000
900.182; -111.950; -335.000; -405.000
900.425; -107.725; -150.000; -298.000
900.668;  -47.900;  491.000;  350.000
900.911; -111.550; -292.000; -345.000
901.154;  -64.275;  141.000;   -3.000
901.396; -138.575; -407.000; -412.000
901.639; -155.275; -430.000; -496.000
901.882; -188.200; -790.000; -809.000
902.124; -100.650;  -29.000; -143.000
902.367; -112.100; -315.000; -361.000
902.609; -135.950; -476.000; -453.000
902.852;  -88.025; -108.000; -260.000
903.094; -126.700; -458.000; -337.000
903.337;  -56.675;  -26.000;   53.000
903.579; -113.925; -228.000; -441.000
903.821; -165.450; -597.000; -744.000
904.064;  -62.525;   85.000;  127.000
904.306;  -95.575; -126.000; -166.000
904.548; -114.925; -152.000; -366.000
904.790; -108.600; -195.000; -340.000
905.033; -151.400; -625.000; -577.000
905.275; -127.575; -513.000; -524.000
905.517;   19.650;  468.000;  256.000
905.759;  -92.475; -667.000; -761.000
906.001; -116.025; -322.000; -369.000
906.243;  -82.950; -162.000; -224.000
906.485;   62.550; -265.000; -207.000
906.727;   17.025; -499.000; -542.000
906.969;  -59.975;  -30.000; -135.000
907.211;   49.525; -316.000; -382.000
907.453;  155.775; -188.000; -237.000
907.695;  -37.825; -158.000; -385.000
907.936;   27.850;  818.000;  706.000
908.178;  -64.125;   92.000; -135.000
908.420;  -77.850; -111.000; -162.000
908.662; -145.375; -633.000; -682.000
908.903;  -88.450; -208.000; -123.000
909.145;  -57.150; -240.000; -305.000
909.386;    2.200;  315.000;  280.000
909.628;   44.850;  363.000;  397.000
909.870;   -3.825;   29.000;  264.000
910.111; -119.125; -809.000; -949.000
910.353;   -8.725; -123.000; -161.000
910.594;  -18.000; -574.000; -606.000
910.835;   66.450; -265.000; -326.000
911.077;  113.025; -503.000; -604.000
911.318;  257.050; -505.000; -471.000
911.559;  400.150; -577.000; -880.000
911.801; 1285.375; -284.000; -280.000
912.042; 9989.200;  -50.000; -159.000
912.283;25620.975;  404.000;  371.000
912.524; 3858.375; -396.000; -457.000
912.765;  453.900; -193.000;   79.000
913.006;  195.650; -307.000; -338.000
913.247;   37.025; -270.000; -290.000
913.488;  -27.050;  -43.000;   30.000
913.729;  -88.025; -373.000; -373.000
913.970;  -71.425;  -96.000; -292.000
914.211;  -84.575; -160.000; -198.000
914.452;  -66.550; -118.000;  -11.000
914.693;   13.125;  510.000;  592.000
914.934;    1.600;  510.000;  440.000
915.175;  -90.475;   53.000;  -95.000
915.415;  -79.525; -137.000;   27.000
915.656;  -70.825;  -28.000;  192.000
915.897;  -98.675; -252.000;  -82.000
916.137;  -81.025;   74.000;   -9.000
916.378; -142.450; -573.000; -517.000
916.619;  -95.550; -159.000;  -63.000
916.859;  -33.800;  303.000;  330.000
917.100;  130.750; 1655.000; 1070.000
917.340;   38.850;  930.000;  728.000
917.581;   32.275;  965.000;  789.000
917.821;  -56.400; -171.000;  143.000
918.061;  -26.950; -199.000;  -72.000
918.302;  -62.675; -152.000; -211.000
918.542;  -42.400;  -22.000;    3.000
918.782;   28.400;  369.000;  377.000
919.023;   95.725;  360.000;  427.000
919.263; 1224.550; 8131.000;  202.000
919.503;  913.625; -137.000;  -54.000
919.743;  439.075;  390.000;  266.000
919.983;  166.350; -134.000;  -26.000
920.223;   65.125;  135.000;   14.000
920.463;  135.975;  631.000;  554.000
920.703;  125.600;   84.000;   39.000
920.943;  154.675; -110.000;   90.000
921.183;  217.150; -414.000; -405.000
921.423;  499.800;  307.000;  546.000
921.663;  748.125; -174.000; -257.000
921.903; 1574.375;  237.000;  173.000
922.143; 8833.975;  372.000;  389.000
922.383;34051.200;  158.000;  115.000
922.622;11316.250; -120.000;  -15.000
922.862; 1196.375;  796.000;  785.000
923.102;  463.700;  -51.000;   33.000
923.341;  180.350;   59.000;   74.000
923.581;   83.600;  450.000;  360.000
923.821;    0.900;  301.000;  398.000
924.060;   11.350;  351.000;  193.000
924.300;  -66.200;  -16.000; -128.000
924.539;  -13.400;  584.000;  473.000
924.779;    8.575;  812.000;  597.000
925.018;  -55.600;  247.000;  353.000
925.257;    1.950;  595.000;  666.000
925.497;  -52.100;  447.000;  412.000
925.736;  -91.950;  -35.000;  102.000
925.975;   -0.450;  687.000;  669.000
926.214;   23.050;  907.000;  850.000
926.454;    8.225;  706.000;  757.000
926.693;  -41.850;  419.000;  543.000
926.932;   38.500; 1021.000;  825.000
927.171;   58.025; 1107.000; 1044.000
927.410;   61.775; 1144.000;  967.000
927.649;   31.325;  924.000;  742.000
927.888;  -15.925;  590.000;  564.000
928.127;  -17.400;  680.000;  678.000
928.366;   15.600;  842.000;  826.000
928.605;   33.250;  831.000;  737.000
928.844;  215.525; 1451.000; 1393.000
929.083;  520.000;  770.000;  613.000
929.321;  288.100; 1335.000; 1359.000
929.560;   77.650; 1158.000; 1122.000
929.799;  -39.650;  574.000;  475.000
930.038;   82.975; 1025.000; 1394.000
930.276;  -59.100;  334.000;  397.000
930.515;   -1.350;  827.000;  681.000
930.753;  -25.575;  614.000;  589.000
930.992;  -23.350;  664.000;  717.000
931.230;    7.500;  847.000;  847.000
931.469;  164.600; 2162.000;  892.000
931.707;   68.625;  840.000;  751.000
931.946;   70.650; 1278.000; 1344.000
932.184;   55.250; 1437.000; 1175.000
932.423;   52.950; 1265.000;  963.000
932.661;   74.225; 1296.000; 1428.000
932.899;   18.925;  987.000;  821.000
933.137;  -11.400;  754.000;  564.000
933.376;  126.075; 1664.000; 1335.000
933.614;  132.325; 1759.000; 1196.000
933.852;   51.975; 1357.000; 1171.000
934.090;  126.025; 1722.000; 1747.000
934.328;  109.800; 1252.000; 1457.000
934.566;  103.350; 1431.000; 1110.000
934.804;  171.075; 1263.000; 1309.000
935.042;  532.750; 1861.000; 1850.000
935.280; 2241.625; 2088.000; 2063.000
935.518; 2070.650; 2113.000; 2007.000
935.756;  422.350; 2481.000; 2316.000
935.994;  160.900; 1808.000; 1751.000
936.231;  324.750; 2890.000; 2950.000
936.469;  176.400; 2367.000; 2378.000
936.707;  165.325; 2220.000; 2167.000
936.945;  238.475; 2825.000; 2882.000
937.182;  204.950; 2679.000; 2741.000
937.420;  308.250; 3602.000; 3031.000
937.657;  371.375; 3365.000; 3478.000
937.895;  334.925; 3331.000; 3488.000
938.133;  294.425; 3540.000; 3528.000
938.370;  341.750; 3896.000; 4191.000
938.607;  379.000; 4488.000; 4205.000
938.845;  548.100; 5587.000; 5549.000
939.082;  488.675; 5387.000; 5177.000
939.320;  547.200; 5799.000; 5728.000
939.557;  627.825; 6549.000; 6491.000
939.794;  732.025; 7285.000; 7097.000
940.031;  888.600; 8421.000; 8368.000
940.269; 1056.200; 9552.000; 9107.000
940.506; 1099.375;10901.000;10507.000

