
Integration time [ms]: 200.000
Averaging Nr. [scans]: 10
Smoothing Nr. [pixels]: 0
Data measured with spectrometer [name]: 2101013U2
Wave   ;Sample   ;Dark     ;Reference
[nm]   ;[counts] ;[counts] ;[counts] 

394.013;  -26.561; -450.257; -315.536
394.305;   76.838; -461.258; -419.536
394.596;  525.857; -676.269; -527.514
394.887; 1312.970; -796.268; -654.518
395.178;  635.194;  145.736;   11.476
395.470;   39.903; -210.263; -356.526
395.761;  231.582;  305.734;  394.479
396.052;  174.159; -545.284; -306.489
396.343;  119.614; -557.276; -454.503
396.634;   35.489; -200.279; -290.497
396.926;  -21.332; -618.268; -565.517
397.217;   71.317;   11.725;  -17.504
397.508;   -7.970; -366.273; -154.507
397.799;  -68.011; -555.279; -571.497
398.090; -176.015; -973.280; -902.495
398.381;   88.001;   11.708;  -11.473
398.672;  -90.698; -585.292; -742.473
398.963;  -24.906; -348.279; -373.498
399.254;   40.109;   54.709; -209.475
399.545; -166.821;-1017.266; -883.520
399.836;   -1.795; -407.277; -343.501
400.127;   26.582; -205.295; -209.468
400.418;   20.325; -423.274; -392.506
400.709;   -4.225; -359.281; -333.493
401.000;   19.612; -268.291; -309.476
401.290;  156.133;  225.698;  115.545
401.581;   65.946; -166.286; -228.485
401.872;  -26.840; -542.298; -486.462
402.163;   48.876; -313.296; -252.467
402.454;   73.909; -123.291; -163.475
402.744;  -49.130; -844.297; -813.465
403.035;  292.194; -226.293;  -86.471
403.326;  360.104; -366.292; -384.474
403.617;  313.656;  204.701;  165.539
403.907;   77.664; -593.283; -679.490
404.198; 1254.497; -545.307; -599.446
404.489; 3164.068; -618.283; -588.491
404.779; 1082.435; -618.302; -660.456
405.070;  146.819;  -67.304; -174.451
405.360;  192.095; -259.293; -238.472
405.651;  298.944;  125.699;   98.542
405.942;  159.142;  209.714;  127.516
406.232;  113.054; -432.285; -413.487
406.523;  450.690;  641.706;  758.530
406.813;   -7.856; -579.286; -644.484
407.104;  292.200;  261.708;  144.527
407.394;   41.057; -604.299; -591.462
407.685;  195.253;  336.715;  222.513
407.975;  -26.633; -400.283; -382.490
408.265;  111.821; -134.289; -190.478
408.556;   -6.393; -472.291; -459.475
408.846;  221.991;  474.706;  429.530
409.137;   82.827;   -1.288; -216.480
409.427;   18.353; -193.285; -271.487
409.717;  -63.368; -776.273; -692.508
410.007;  116.248;    4.715; -170.486
410.298;   40.484; -360.295; -342.469
410.588;   -9.649; -495.285; -510.486
410.878; -101.764; -792.287; -873.482
411.168;    6.862; -481.298; -478.463
411.459;   57.262; -295.283; -242.489
411.749;  -67.694; -609.292; -507.474
412.039;  -60.774; -755.289; -386.480
412.329;  198.100;   40.722;  132.501
412.619;  112.044;  -62.286; -148.485
412.909;  353.723;  639.711;  594.521
413.199;  207.185; -130.280; -251.495
413.490;  365.015;  521.710;  352.523
413.780;  -91.612;-1013.279; -913.496
414.070;  244.415;  -46.276;  235.497
414.360;  117.897; -729.278; -666.498
414.650;  104.733; -726.288; -688.482
414.940;  275.788; -538.280; -441.496
415.230;  580.130;   50.712;   74.519
415.520; 3596.657;  155.730;   66.486
415.809;13183.175; -305.281; -125.493
416.099;10534.107; -388.277; -229.501
416.389; 3102.724;  435.726;  236.494
416.679; 1878.506;   91.738;   85.473
416.969;  293.839; -527.287; -503.483
417.259;  453.390;  341.721;  171.503
417.549;  540.274;  522.718;  318.508
417.838;  962.370; -205.268; -147.518
418.128; 3060.719;  650.710;  492.522
418.418; 2373.337; -491.272; -579.509
418.708; 1790.524;    9.726;  -48.506
418.997; 6256.321; -474.275; -480.505
419.287; 6393.029; -733.273; -790.507
419.577; 6212.262; -160.283; -123.489
419.866;20303.506; -588.277; -498.501
420.156;21243.453; -242.270;  -55.513
420.446; 4248.200; -112.263;  -26.526
420.735;  507.249; -376.271; -446.512
421.025;  918.096; 1830.722;  315.502
421.314;  497.447; -203.271; -226.512
421.604; 1113.264;   89.732;  233.484
421.893;  567.844; -705.271; -602.511
422.183;  112.000; -487.263; -461.526
422.472;  286.545;  -36.271; -107.511
422.762;  238.084; -416.266; -379.521
423.051;   50.215; -916.276; -916.503
423.341;  129.731; -491.273; -439.507
423.630;  277.988; -121.265;   15.477
423.919;  274.820;   58.725;   49.495
424.209;  241.504;  -31.263;   56.473
424.498;  333.768;   68.732;  161.483
424.787;  545.673; -535.267; -601.518
425.077; 1943.187;   34.735;   29.478
425.366; 2593.008; -734.262; -744.528
425.655; 5528.231;  639.727;  259.493
425.945;10839.009; -313.247; -268.554
426.234; 6449.026;  117.741;  300.467
426.523; 2794.130;  -86.259; -350.534
426.812; 3933.580;  107.734;  159.480
427.101; 5802.361; -127.269; -323.515
427.390; 7411.256;  -55.270;  -86.514
427.680; 1790.646; -624.257; -411.538
427.969;  330.254; -330.255; -301.540
428.258;  205.839; -385.257; -477.536
428.547;  471.240;  449.728;  397.490
428.836;  755.067; -421.253; -398.543
429.125; 1172.032; -199.259;  -72.534
429.414;  547.284; -330.251; -294.548
429.703; 1812.684; -231.251; -213.548
429.992; 4913.087; -938.250; -828.549
430.281; 3453.194; -397.264; -331.524
430.570;  488.877;  -21.252;   32.454
430.859;  535.030;  279.741;  352.466
431.148;  540.206;  636.752;  631.446
431.437;  371.777;  391.748;  367.454
431.725;   55.340; -544.257; -481.536
432.014;  -68.128; -845.253; -756.545
432.303;  214.365; -149.239; -105.569
432.592;  295.199; -460.263; -178.525
432.881;  508.807; -601.248; -437.554
433.169; 3409.355; -343.255;  -61.540
433.458; 6652.491;  445.765;  540.424
433.747; 2827.013; -397.261; -289.529
434.036;  528.246; -275.242; -280.564
434.324; 1142.097; -395.249; -379.551
434.613; 2035.541;   40.757;  159.437
434.902;  804.257;  333.760;  439.433
435.190;  439.664;   75.761;  295.431
435.479;  241.527;  -52.245;   83.441
435.767;   55.933; -411.244; -427.561
436.056;  104.143; -340.242; -294.563
436.345;  199.659; -372.240; -223.568
436.633;  346.893;   60.750;  383.450
436.922;  243.061;  208.760;  414.432
437.210;  507.584; -194.236;    1.426
437.499; 1397.990; -583.235; -432.576
437.787; 1570.483; -339.236;  -10.574
438.075;  450.568;   56.761;  162.430
438.364;  480.470;  -44.238;  250.429
438.652;  258.652; -286.226; -138.592
438.941;  155.524;    3.770;  269.415
439.229;  -38.125; -665.252; -466.545
439.517;   48.696; -160.234;  -85.577
439.806;  -75.336; -501.225; -290.595
440.094;  227.302;  377.766;  650.421
440.382;   42.105; -653.233; -302.580
440.670;   87.090; -361.235; -285.576
440.959;  -14.222; -347.223; -170.599
441.247;   52.633; -151.229; -109.587
441.535;   49.395; -266.235;   31.423
441.823;  -58.800; -497.234; -305.578
442.111;  193.036;  173.771;  327.412
442.400;  234.026; -628.245; -335.559
442.688; 1003.602; -111.234; -620.579
442.976;  602.546; -786.213; -450.617
443.264;   47.470; -324.224; -364.597
443.552;   35.953; -258.226;   51.408
443.840;  272.494;  602.765;  876.423
444.128;  151.405;  265.767;  269.420
444.416;  -49.662; -694.228; -312.588
444.704;  -19.999; -465.219;  -92.605
444.992;   72.655;   -0.226;  240.407
445.280;  -17.875; -517.230;  -94.585
445.568;  -52.451; -694.212; -396.618
445.856;  237.989; -174.221;  357.398
446.143;  490.298;  -54.220;   -7.604
446.431;  498.741;  -25.228;  625.411
446.719;  280.616;  489.783;  675.391
447.007;  215.120;  481.769;  705.416
447.295;  256.376;  597.777;  871.402
447.583;   43.931; -464.229;  -34.587
447.870;   61.686; -434.221; -202.601
448.158;  337.924; -104.230;  129.415
448.446;  132.599; -800.219; -338.604
448.733;  109.371;   13.776;  269.403
449.021;  224.849;   60.788;  341.382
449.309;  117.761; -296.210;  208.379
449.596;  200.513;  128.783;   59.392
449.884;   16.381; -571.222; -325.600
450.172;  -21.755; -756.227; -406.590
450.459;  434.333;  645.786;  780.387
450.747; 1304.812; -411.218; -147.608
451.034; 4073.442;  493.772;  889.411
451.322; 3206.236; -413.214; -170.614
451.609;  423.672;  292.777;  508.403
451.897;  286.210; -550.203; -183.634
452.184;  898.376; -622.223; -400.598
452.472; 1046.177;   97.792;  269.375
452.759;  395.199;  512.781;  864.395
453.047;   66.047; -407.212; -125.617
453.334;    7.806; -732.219; -216.606
453.621;   27.438; -438.214; -161.615
453.909;  158.203;   13.796;  384.368
454.196;   97.239; -299.199; -123.641
454.483;  238.220;  317.798;  540.364
454.771;  130.680; -215.208;  196.374
455.058;   50.482; -316.207;  102.374
455.345;  144.182;   71.807;  344.347
455.632;   92.685; -128.207;  235.373
455.919;   55.656;  -82.196;  182.354
456.207; -127.158; -774.198; -450.642
456.494;  -42.871; -475.200;  -66.639
456.781;  -23.784; -399.202; -198.635
457.068;   49.090; -253.206;  -29.628
457.355;  -89.209; -698.206; -401.629
457.642;  -44.205; -552.205; -290.630
457.929;  -55.225; -778.194; -417.651
458.216;  -42.353; -575.212; -354.617
458.503;  185.478; -173.193;  -19.652
458.790;  104.878; -864.208; -630.625
459.077;  208.320;  -77.202;  110.364
459.364;  474.369; -350.195; -210.649
459.651;  984.088;  -46.206;  220.372
459.938;  342.070; -864.209; -665.623
460.225;  180.123;  132.799;  276.363
460.512; -139.746; -836.197; -688.645
460.799;  134.411;  -32.218;  320.392
461.086;    0.833; -370.200; -251.640
461.372;  -30.457; -509.198; -279.642
461.659;  130.457; -165.196;  108.354
461.946;    6.477; -445.193;  -54.651
462.233;  327.031;  842.800;  888.361
462.519;   99.528; -814.201; -464.639
462.806;  446.555; -768.197; -497.645
463.093;  454.693; -445.191;  -66.656
463.380; -152.274; -920.186; -824.664
463.666;   29.156; -259.197;  -18.646
463.953;   43.765; -406.195; -243.648
464.239;  136.065; -173.195;  -77.648
464.526;  400.674;  413.806;  743.350
464.813;  157.503; -565.190; -304.658
465.099;  382.178;  606.807;  607.348
465.386;  427.681;  903.807;  921.348
465.672;  -59.145; -694.197; -522.645
465.959;  -60.083; -598.188; -520.662
466.245;   -4.219; -468.193; -359.652
466.532;  112.264; -109.195;   63.352
466.818;   40.325; -357.186; -216.664
467.104;  -55.643; -488.182; -415.672
467.391;  -36.296; -628.189; -459.658
467.677;   52.228; -289.186;    9.335
467.964;  -40.291; -682.189; -471.660
468.250;   96.930; -331.186; -160.665
468.536;  154.505;   90.811;  180.341
468.822;  -99.360; -821.184; -574.668
469.109;  263.020;  351.827;  471.311
469.395;  305.089;  729.808;  787.346
469.681;  189.507;   46.811;  156.341
469.967;  660.111; -699.188; -382.660
470.254; 1431.917; -494.188; -306.662
470.540;  947.256; -601.196; -476.646
470.826;  107.765; -488.181; -397.675
471.112;  318.442;  288.816;  113.331
471.398;  106.946; -253.183;  -58.670
471.684;  -17.413; -626.177; -447.680
471.970; -124.132; -918.180; -981.675
472.256;  -10.012; -521.192; -441.654
472.542;  -24.572; -499.171; -434.691
472.828;  -38.846; -743.182; -607.672
473.114;   29.962; -380.166; -283.700
473.400;   -9.300; -504.175; -293.684
473.686;    0.767; -452.166; -400.701
473.972;   54.312; -230.174; -131.687
474.258; -156.280; -925.173; -843.689
474.544;  193.181; -183.178;   -2.679
474.830;  256.202;  -65.175;   45.316
475.116;  386.404; -123.190; -196.658
475.401;  407.870; -558.180; -467.676
475.687;   71.369; -725.180; -718.676
475.973;  -75.440; -673.181; -770.673
476.259;  368.003;  736.825;  764.315
476.544;  257.694; -539.176; -437.682
476.830;  558.225; -398.172; -322.690
477.116;  535.493; -430.177; -336.682
477.401;  219.670;  346.820;  358.324
477.687;  -41.300; -289.175; -405.684
477.973;   85.163;   21.819;   28.326
478.258;  -35.017; -448.163; -348.706
478.544;   88.434;   21.815;   61.334
478.829; -142.667; -818.171; -738.692
479.115;  -93.875; -749.172; -651.690
479.401;  -49.692; -444.174; -449.686
479.686;   43.269; -253.180;  -74.676
479.972; -126.615; -886.178; -776.680
480.257;   37.463; -258.166;  -65.700
480.542;  -57.464; -614.170; -469.693
480.828;  466.699; 1288.824; 1392.317
481.113;  -47.203; -464.176; -426.683
481.399;   31.902; -236.161; -202.711
481.684;  -74.737; -620.166; -462.700
481.969;   52.712; -158.159;  -73.713
482.255;   -2.356; -439.169; -285.695
482.540;    9.285; -569.178; -441.680
482.825;  -12.478; -395.187; -404.663
483.110;  152.846;  -85.169; -105.696
483.396;   80.529; -840.157; -652.718
483.681;  497.612;  543.826;  730.313
483.966;   43.707; -696.160; -700.712
484.251;   -6.689; -404.174; -310.687
484.536;  -11.429; -356.165; -378.703
484.822;   13.613; -205.173; -218.687
485.107;  -67.441; -599.152; -502.726
485.392;  249.876;  662.836;  541.296
485.677;  146.354;  354.832;  163.302
485.962;  160.727;  160.843;  270.283
486.247;  121.889;  -14.162;   -8.707
486.532;   37.164; -178.166; -325.701
486.817;  245.997;  381.839;  431.291
487.102;   36.845; -453.154; -514.722
487.387;  378.230; -637.156; -652.718
487.672;  807.780; -154.164;  -38.705
487.957;  531.503; -394.160; -286.711
488.241;  178.572; -290.150; -314.729
488.526;  527.660; -280.152; -148.726
488.811;  669.687; -881.177; -818.680
489.096;  500.847; -666.154; -702.723
489.381;  361.157;    3.847;  162.275
489.666;  218.301; -428.161; -510.710
489.950;  294.750;  558.846;  627.277
490.235;  -91.932; -480.151; -458.728
490.520; -101.599; -756.161; -723.710
490.804; -133.468; -827.156; -736.719
491.089;   -9.416; -469.149; -299.732
491.374;   74.679; -132.164;  -75.704
491.658; -116.907; -817.147; -717.735
491.943;   51.963; -657.152; -609.727
492.227;  178.342; -178.155;  -38.721
492.512;   14.027; -294.157; -341.717
492.797; -140.621; -713.149; -716.731
493.081; -105.005; -588.147; -598.735
493.366; -117.598; -751.161; -635.711
493.650;  329.536;  831.859;  917.254
493.935;  -38.808; -648.147; -447.734
494.219; -126.774; -778.142; -687.743
494.503; -115.725; -585.150; -487.730
494.788;   68.620;   46.842;   74.285
495.072;  160.673;  184.850;  434.271
495.356;   51.586; -463.148; -343.733
495.641;  221.100; -812.146; -736.736
495.925;  159.336; -976.156; -903.719
496.209;  -46.317; -599.149; -451.732
496.494; -118.373; -763.142; -544.744
496.778;   -7.755; -364.154; -360.722
497.062; -117.765; -819.156; -627.719
497.346; -117.396; -869.160; -640.711
497.631;  232.189;  580.852;  560.266
497.915;  145.908;  -64.145;  175.261
498.199;   49.229; -341.157; -277.718
498.483;  -46.042; -562.152; -508.725
498.767;  226.873;  301.850;  300.271
499.051;  148.182; -126.149; -100.732
499.335;  -86.520; -693.149; -739.731
499.619;  -67.085; -381.129; -423.767
499.903;   31.741; -272.155;  -65.721
500.187;  -26.649; -588.153; -316.724
500.471; -101.038; -796.152; -595.727
500.755;  109.701;   62.839;  -96.710
501.039;   14.941; -270.155; -357.721
501.323;  114.538;  -21.141;  264.254
501.607;  -23.517; -447.163; -503.706
501.891;  -69.070; -607.156; -512.718
502.174; -133.983; -726.144; -585.741
502.458;  138.265;   89.849;  370.273
502.742;   11.056; -180.138; -191.751
503.026;   94.492; -412.147; -254.734
503.310;  116.611; -437.159; -375.713
503.593;   78.693; -464.147; -325.735
503.877;   72.888; -232.133; -156.760
504.161;  122.153;    2.847;  -50.724
504.444;  -37.178; -841.158; -710.716
504.728;  206.878; -487.164; -522.704
505.012;  420.671; -257.150;  -76.729
505.295;  290.602; -417.161; -212.711
505.579;  345.535; -256.156; -496.719
505.862;  464.505; -555.145; -333.738
506.146;  413.613; -681.159; -758.714
506.429;  431.813;  568.841;  461.286
506.713;   -8.731; -732.151; -667.728
506.996;  291.745;   90.846;  295.278
507.280;  179.974; -633.165; -474.703
507.563;  159.440; -469.155; -261.721
507.847;   24.652; -423.153; -112.724
508.130;   -1.498; -665.161; -456.711
508.413;   82.660; -758.167; -577.700
508.697;  215.560; -151.167;   12.300
508.980;   85.253; -422.153; -312.724
509.263;  -55.963; -466.155; -450.720
509.547;   17.271; -124.150;   82.271
509.830;   70.004; -172.160;  140.289
510.113;  141.335;  128.844;  298.281
510.396;  -16.543; -530.152; -300.725
510.680;   20.306; -818.145; -812.738
510.963;  551.748;  184.846;  180.277
511.246;  333.577; -493.150; -357.730
511.529;  184.810; -482.145;  -83.739
511.812;  285.385; -250.134;   10.241
512.095;  122.767; -740.151; -396.728
512.378;   20.896; -317.147; -245.736
512.661;  -29.038; -703.137; -623.753
512.944;  -94.072; -750.142; -637.744
513.227;   48.560; -170.137; -171.752
513.510;  -19.683; -479.144; -671.741
513.793;  -42.759; -485.140; -435.747
514.076;  122.131;  -43.127;  -39.771
514.359;   43.284; -294.149; -135.732
514.642;  -25.170; -442.142; -567.744
514.925;  589.240;  581.860;  561.253
515.208;  530.282; -498.134; -443.758
515.491;  390.993; -276.133; -182.761
515.773;  196.320; -410.143; -337.742
516.056; 1426.867;  249.864;  409.246
516.339; 1507.070; -754.136; -652.755
516.622; 1221.375; -518.150; -488.730
516.904; 1088.725;  882.857;  975.257
517.187;  353.259; -730.138; -523.752
517.470;  236.624; -568.143; -510.743
517.752;  229.372; -624.136; -470.756
518.035;  142.049; -708.139; -725.749
518.318;   94.270; -799.136; -744.755
518.600; 1379.696; -300.132; -325.762
518.883; 1866.230;  310.858;   88.256
519.165;  914.653; -585.138; -426.751
519.448;  303.895;  -61.132;  -19.762
519.730;   47.637; -573.126; -415.773
520.013;  365.390;  588.867;  664.240
520.295;  517.286;  -94.134;  -15.759
520.578; 1108.306; -335.131; -305.764
520.860; 1285.996; -254.132;   56.238
521.143;  564.474; -763.135; -584.756
521.425;  280.347; -251.125; -279.775
521.707;  435.632; -622.127; -380.771
521.990; 1235.132; -199.127;  167.229
522.272; 1298.042; -116.140;   -4.748
522.554;  597.820; -237.143; -157.742
522.836;  224.785;  -24.134;   99.241
523.119;  109.591; -496.148; -189.734
523.401;   81.311; -448.130; -314.766
523.683;  -69.637; -865.137; -693.753
523.965;  290.657;  408.862;  260.248
524.247;  263.464;   54.878;  170.220
524.529;  105.886; -451.134; -367.759
524.812;  306.112;   -3.130;  191.234
525.094;  526.457; -773.138; -631.751
525.376;  874.454; -143.124;   78.223
525.658;  557.268; -441.136; -339.754
525.940;  -74.897; -805.131; -671.764
526.222;   42.371; -188.136;  -88.755
526.504;  100.201; -190.131;   32.237
526.786;   14.788; -960.133; -647.760
527.068;  216.259; -124.123;  -67.778
527.349;  -41.535; -865.137; -774.754
527.631;  114.195; -137.132;   22.238
527.913;    7.131; -664.127; -450.771
528.195;   18.442; -761.125; -639.774
528.477;  201.482;  -93.134;  -30.758
528.759;  -14.888; -648.130; -522.766
529.040;  -28.342; -569.123; -293.778
529.322;   -2.956; -235.125;  -10.774
529.604;  119.514;  -47.130;   93.233
529.886;   13.837; -546.126; -302.773
530.167;  120.908;  232.870;  192.235
530.449;   54.596;    1.853;   63.265
530.731;  -34.537; -572.122; -459.779
531.012;    9.479; -513.120; -216.784
531.294;   37.310; -118.116;  -43.792
531.575;  220.947;  290.875;  538.225
531.857;  -11.722; -548.135; -266.757
532.138;   87.137; -113.141;   40.254
532.420;  190.675;  294.865;  403.244
532.701;   28.090; -722.133; -751.760
532.983;  307.192;  232.867;  182.239
533.264;   98.235; -243.126;  175.228
533.546;  -71.629; -491.136; -508.755
533.827;   54.587;  173.867;   -1.759
534.109;   -9.622; -352.135;  -80.757
534.390;  -35.502; -725.132; -582.762
534.671;  195.775; -270.135;  -82.756
534.953;   -5.340; -751.123; -611.779
535.234;  -24.802; -426.117; -255.789
535.515; -170.814; -891.119; -735.785
535.796;  -60.672; -431.128; -193.770
536.078; -233.146;-1050.124; -904.777
536.359;    9.660;  -22.123;    3.221
536.640;  -49.757; -480.125; -197.774
536.921;  178.718;  225.871;  143.232
537.202;  250.854;  -87.138;  -16.751
537.483;  385.205;  251.869;  377.236
537.764;  139.308;   17.870;   98.235
538.045; -107.818; -543.134; -371.758
538.326; -106.381; -596.129; -447.768
538.607;  -83.868; -686.127; -476.771
538.888;  123.672;   98.879;    5.218
539.169;   49.368; -704.122; -535.781
539.450;  275.317;  236.871;   16.233
539.731;  150.475; -361.121; -182.783
540.012;   76.079;  199.880;  412.216
540.293;   90.550;   82.876;  158.224
540.574; -155.174; -895.113; -717.796
540.855;  402.574;  435.879;  377.218
541.136;  363.266;   47.878;  139.220
541.416;  147.113; -161.130; -220.766
541.697;   55.502; -274.131; -170.763
541.978;  687.377; -270.135; -315.757
542.259;  733.532; -211.127; -236.771
542.539;  356.505; -191.116; -186.790
542.820;  203.147;  461.875;  480.225
543.101;   64.908;  -52.145;  -77.738
543.381;  -92.868; -638.127; -591.771
543.662;  192.130;  159.873; -254.771
543.942;  212.429; -751.127; -830.770
544.223;  713.867;  193.878;  161.219
544.504;  390.854; -275.124; -182.777
544.784;  303.137; -592.126; -408.773
545.065;  908.508;  104.884; -254.791
545.345; 1089.486;  227.881;   14.215
545.626;  843.525;  -14.113; -108.796
545.906;  613.707;   77.869;   98.235
546.186;  201.740;   92.874;  -95.773
546.467;  131.956;   99.877;  -95.778
546.747;  257.205;  264.884;  327.210
547.027;  275.453;   91.876;  111.223
547.308;  140.128; -376.127; -530.770
547.588;  294.920;  299.871;  371.232
547.868;  255.608;  458.870;  588.235
548.149;  277.614;  609.885;  593.207
548.429;   68.031; -347.127; -299.771
548.709;   39.479; -645.120; -461.784
548.989;  357.793;   84.882;   88.213
549.269; 1356.794;   10.868;  139.239
549.550; 2909.759;  215.877;  117.222
549.830; 2416.639; -758.111; -556.799
550.110;  480.145; -468.110; -320.801
550.390;  526.263; -128.122;  -56.779
550.670;  579.622; -868.114; -783.795
550.950;  470.274; -509.121; -471.782
551.230;  272.871;  549.879;  460.218
551.510;  -25.627; -381.121; -326.782
551.790;   24.451; -173.109; -127.803
552.070;  386.256;  940.877; 1181.223
552.350;  201.189; -492.119; -377.786
552.630;  383.269;   -2.121;   77.219
552.909;  241.108;  181.884;   73.209
553.189;  206.199;  -49.132;   33.237
553.469;   51.489; -703.119; -514.786
553.749;  120.133; -469.127; -357.772
554.029;  142.301;   33.883;  -24.790
554.308;   91.217; -154.115;  -37.794
554.588;   -5.073; -196.128; -204.770
554.868;   19.774; -366.121;  -47.782
555.147;  113.915; -114.115;  -46.793
555.427;  334.410; -260.116; -250.792
555.707; 2312.613; -284.115; -200.793
555.986; 2487.642; -719.111; -538.800
556.266; 1477.504;   23.884;   72.210
556.546;  -42.327; -888.121; -675.782
556.825;   39.120; -657.114; -556.794
557.105; 1045.125; -125.128;   17.230
557.384; 1253.907;  122.884;  187.209
557.664;  381.009; -717.116; -508.792
557.943;   10.574; -557.121; -411.782
558.222;   51.996; -345.118; -344.788
558.502;  139.916; -116.115;  -76.793
558.781;  349.712;  194.885;  499.208
559.061;  219.896; -232.118; -227.788
559.340;  252.899;  302.883;  353.211
559.619;  520.904;   93.884;  148.210
559.899;  623.901; -239.117; -266.789
560.178;  520.315; -778.115; -593.793
560.457; 1993.902; -623.117; -562.790
560.736; 2547.343; -472.111; -482.800
561.015; 1796.824; -500.128; -502.769
561.295;  279.467;  180.893;  215.193
561.574;  248.413;  119.885;  116.207
561.853;  352.754;  274.891;  303.197
562.132;  329.317;  -45.114;  182.206
562.411;  397.769;  396.879;  553.219
562.690;  -31.288; -592.115; -458.792
562.969;  241.831;  472.888;  630.203
563.248;  837.468; 2966.878; 2487.219
563.527;  126.942; -290.111; -408.800
563.806;  169.831; -650.127; -521.771
564.085;  261.378; -297.105; -206.810
564.364;   46.903; -594.117; -405.790
564.643;  327.770; -276.121; -223.781
564.922; 1140.750;  221.890;  397.198
565.201;  912.053; -640.109; -700.803
565.479;  414.211; -297.115; -219.792
565.758;   71.626; -810.128; -712.770
566.037;  285.653; -155.109; -100.803
566.316;   99.908; -286.116;  -28.791
566.595;   63.013;  -17.115;  -12.793
566.873;  179.144; -166.111;  -79.801
567.152; -112.570; -490.113; -590.797
567.431;   45.404; -113.116;    6.210
567.709;   -8.233; -344.107; -212.807
567.988;   51.120; -810.114; -769.794
568.266;  270.513; -160.115;  -68.793
568.545;  182.415; -644.100; -514.819
568.824;  509.410;  160.885;  356.208
569.102;  303.420; -351.114; -235.794
569.381;   88.510; -492.116; -407.792
569.659; -125.073; -553.113; -553.796
569.938;  -58.534; -743.122; -465.780
570.216;   29.755; -225.109; -225.804
570.494; -100.978; -632.114; -572.795
570.773;   65.373;  202.879;  114.218
571.051;  -19.242; -373.123; -357.778
571.330;  -10.174; -221.113; -174.796
571.608;    5.529; -181.098; -173.823
571.886; -165.462; -671.111; -581.799
572.164; -178.226; -739.121; -621.782
572.443; -120.319; -562.105; -512.811
572.721; -103.498; -399.117; -289.790
572.999;  -76.603; -280.117; -168.788
573.277;  184.976;  379.894;  620.191
573.555;  152.378;   94.894;   37.190
573.834;  746.197;  -86.117; -114.788
574.112; 1032.669;  880.893;  811.193
574.390;  280.343; -143.111;  -96.801
574.668;  -24.869;  -91.112;  -61.797
574.946;  -28.222; -165.106; -187.810
575.224;    3.852;   71.891;  -16.803
575.502;  -38.194; -200.116; -204.791
575.780; -190.168; -767.112; -829.798
576.058;  471.342; 1589.889; 1004.200
576.336;  -33.053; -210.110; -129.801
576.614; -120.268; -511.112; -340.798
576.891;  -98.183; -711.115; -823.794
577.169;  248.162; -158.108; -285.805
577.447;  375.368;  169.893;  202.193
577.725;  327.036;  629.888;  854.201
578.003;  -30.766;  -71.112; -371.798
578.280;   27.488; -208.104; -242.812
578.558;  -76.084; -450.115; -422.793
578.836;   52.022; -210.114; -145.795
579.114;  -93.869; -630.112; -670.797
579.391;   50.098;   -6.117;  -18.789
579.669; -185.483; -595.114; -704.794
579.947;   56.066; -326.107; -127.806
580.224;   57.065; -692.107; -524.806
580.502;  197.869;  127.893;   76.193
580.779;   44.603;  -42.117;   75.210
581.057; -130.044; -584.109; -470.804
581.334; -182.300; -726.102; -695.815
581.612;   90.579;   54.895;  511.190
581.889;  -50.290;  -83.101; -129.818
582.167;  -88.979; -298.099; -190.821
582.444; -190.494; -845.102; -814.817
582.721;  210.806;  657.899;  715.183
582.999;   29.319; -326.100; -167.821
583.276;  175.561; -812.123; -713.779
583.553;  304.602; -364.102; -294.816
583.831;    9.086; -607.104; -631.812
584.108;   96.660;  349.892;  174.195
584.385;  -29.401; -122.102;  -98.815
584.662; -172.556; -651.111; -828.801
584.940;   36.243;  204.889;  204.199
585.217;  -50.973;  -73.113; -303.796
585.494;   43.650;   71.890;  118.198
585.771;   79.256; -250.109; -354.804
586.048;  218.327; -196.113;  -76.796
586.325;   43.046; -721.110; -773.801
586.602;   92.789;  230.896;  213.188
586.879; -121.184; -499.100; -580.820
587.156;  -17.421; -156.105; -331.810
587.433; -132.996; -701.102; -667.817
587.710;   68.533;  152.888;  234.202
587.987;  102.883; -264.105; -236.811
588.264;  477.534;  315.888;  387.202
588.541;  801.690;  -61.104;   26.187
588.818; 1473.958;   72.892;  171.196
589.095; 1253.087; -163.104; -174.812
589.371;  175.455; -459.109; -414.804
589.648;  -88.031; -581.107; -437.807
589.925;  -86.977; -517.114; -621.795
590.202;  -82.468; -741.112; -607.798
590.478;   47.285; -166.105;  -73.811
590.755;  116.763; -241.108; -132.806
591.032; 1504.848; -741.110; -699.802
591.308; 1842.560; -732.094; -790.831
591.585; 1027.247; -573.110; -560.802
591.862;  -68.595;-1056.102; -950.817
592.138;  -46.639; -475.108; -474.805
592.415;   -0.011; -486.104; -495.813
592.691; 1062.787;  460.896;  518.188
592.968; 1128.630; -208.098; -123.824
593.244;  440.305; -695.116; -595.790
593.521;   19.806; -105.102;  -42.817
593.797; -163.236; -810.122; -720.780
594.074;   41.940; -611.096; -588.826
594.350;  543.749;  828.905;  729.172
594.626;  172.844; -303.111; -283.801
594.903;  -61.794; -643.101; -645.817
595.179;  174.692;  243.896;  418.187
595.455;   -1.730; -136.107; -150.807
595.731;   18.793;  -19.103;  -38.814
596.008;  -99.760; -464.111; -434.800
596.284;  -18.482; -187.100; -242.820
596.560;  -12.735; -501.093; -493.833
596.836;   57.281; -173.105;  -70.810
597.112;  120.561; -582.108; -437.805
597.388;  137.838;  -49.097;  -48.826
597.665;  150.529;  437.887;  530.203
597.941; -176.412; -572.089; -658.839
598.217;  -35.050; -323.110; -293.802
598.493;  138.257;   61.891; -204.804
598.769;  286.914; -175.100;  -50.819
599.045;   73.564; -490.108; -562.806
599.321;  -34.683; -193.100; -261.820
599.597;   52.757; -355.109; -476.804
599.872;  414.590;  409.896;  429.187
600.148;  200.140;  -61.097; -172.826
600.424;  228.767;   91.893;  202.193
600.700;  141.369; -170.107; -280.807
600.976;   11.035; -442.097; -464.825
601.252;  113.554; -226.109; -272.803
601.527;  -26.309; -833.104; -840.813
601.803;   11.185; -453.105; -404.812
602.079;  101.714; -124.100; -118.819
602.354;  264.873; -620.092; -531.835
602.630;  432.427; -140.113; -482.796
602.906; 1352.010; -910.101; -863.818
603.181; 3561.889; -627.119; -534.786
603.457; 3128.638;   98.903; -278.826
603.733;  395.876; -605.120; -626.783
604.008;  656.878; -245.106; -164.810
604.284; 1657.107; -636.101; -580.817
604.559; 1569.236;   -3.112;  -42.799
604.835;  249.081; -163.105; -225.810
605.110;  115.822; -732.099; -892.821
605.385;  482.167;  224.907;  267.167
605.661;  244.551; -625.095; -729.829
605.936;  480.464; -664.108; -737.806
606.211;  522.398;  -17.103; -170.815
606.487;   71.219; -329.114; -376.794
606.762;  -99.311; -791.119; -745.786
607.037;  -67.219; -501.105; -433.810
607.313; -173.754; -589.096; -574.828
607.588;  -29.022; -375.106; -137.810
607.863;   27.610;  -28.101; -143.818
608.138;  231.149;  513.890;  516.198
608.413;  -46.675; -576.099; -592.822
608.688;  -33.239; -203.108; -267.805
608.964;   62.474; -509.106; -218.809
609.239;  106.879; -107.105; -212.810
609.514;  201.685;  281.895;  240.188
609.789;  237.688; -187.104; -716.812
610.064;  419.345; -435.096; -609.827
610.339;  355.155; -855.109; -799.804
610.614;  662.318; -131.100; -315.820
610.889;  403.885;  215.895;  107.188
611.163;  -74.914; -407.104; -591.812
611.438;   -8.180;   81.886; -167.794
611.713;  -73.393; -467.101; -499.817
611.988;  -32.991; -144.101; -328.818
612.263; -158.700; -771.102; -717.815
612.538;  249.427;  385.887;  251.204
612.812;  -41.881; -832.100; -911.820
613.087;   55.529; -358.098; -338.823
613.362; -145.531; -497.107; -557.807
613.637;   69.495;  261.897;  138.186
613.911;  -63.927; -256.092; -345.835
614.186;  -10.132; -249.107; -292.807
614.460;  213.246; -842.081; -758.854
614.735;  454.606;  -55.087;  -17.843
615.010;   63.998;   43.912;  -82.841
615.284;  203.061;  360.892;  246.195
615.559;   53.772; -792.092; -955.835
615.833;  187.923;  -76.099;  -87.822
616.108;  -54.719; -225.090; -390.837
616.382;  141.307;  274.913;  402.156
616.656;   42.082; -241.090; -232.837
616.931;  134.523; -785.099; -700.822
617.205;  406.491; -973.104; -979.813
617.480;  579.746;  -91.125;    6.225
617.754;   18.144; -396.125; -128.774
618.028;  -65.379; -369.129; -382.768
618.302;   48.359;   73.892;  -25.805
618.577; -113.404; -371.103; -518.815
618.851; -120.548; -399.109; -600.803
619.125; -113.514; -335.134; -378.759
619.399;  -60.008; -244.104; -374.813
619.673; -119.389; -330.115; -515.792
619.947;  -99.778; -333.114; -448.795
620.222;  -32.355; -198.110; -204.801
620.496;   -0.726;  -47.121;  -96.782
620.770;   -7.732; -187.122;  -93.781
621.044;  201.379;  323.895;  346.190
621.318;  330.576; -653.120; -614.783
621.592;  304.875; -430.121; -409.783
621.866;   75.636; -476.112; -572.799
622.140;  -15.994; -207.116; -356.791
622.413;   65.740;  138.889;  112.200
622.687; -153.493; -746.101; -492.817
622.961;   18.360; -130.108; -143.805
623.235; -162.960; -633.111; -661.800
623.509; -222.615; -816.105; -848.811
623.783;   18.766;  -12.107;   48.193
624.056;  -87.723; -254.120; -280.783
624.330;   65.031;   63.888;   -3.797
624.604;  -36.497; -271.116; -355.790
624.877;   54.648;  180.890;   26.198
625.151;   11.518; -249.114; -238.794
625.425;  -77.807; -150.103; -283.814
625.698; -124.815; -367.119; -374.785
625.972; -204.650; -799.110; -765.802
626.245;  104.105;  685.884;  484.210
626.519;  -81.620; -426.120; -340.784
626.792;  -79.831; -192.107; -380.807
627.066; -168.038; -485.122; -662.779
627.339; -189.053; -736.110; -663.802
627.613;   80.479;  351.880;  148.216
627.886;   95.952;  187.891; -612.803
628.160;  -53.524;  312.880; -161.783
628.433; -193.252; -695.125; -703.775
628.706; -152.320; -517.120; -615.784
628.979;   66.253;  296.876;  117.223
629.253; -238.812; -785.119; -833.786
629.526;  165.636; -334.126; -253.772
629.799;   69.658; -641.123; -479.778
630.072;   -8.578; -497.128; -516.769
630.346; -268.595;-1115.116;-1080.790
630.619;  166.670; -467.107; -545.808
630.892;  438.641;  709.889;  593.200
631.165;  327.592;  790.896;  679.187
631.438; -275.866;-1092.112;-1055.798
631.711;  106.161;  453.877;  257.221
631.984; -114.099; -523.117; -624.789
632.257; -183.802; -636.117; -681.789
632.530;  -98.515; -412.119; -433.785
632.803;   63.616; -109.115;    7.207
633.076; -141.644; -360.123; -422.777
633.349;   28.025;  173.872;  121.231
633.622;  -72.116; -187.119; -240.785
633.895; -244.723; -903.120; -823.783
634.167; -136.963; -496.126; -525.773
634.440;  -42.890;  -19.116; -137.792
634.713;  -11.113;  -22.119; -120.786
634.986;  147.117;  593.871;  453.233
635.258; -172.485; -507.115; -597.793
635.531;  190.995;  742.882; -343.788
635.804;  -71.300; -303.117; -318.789
636.077; -186.893; -830.116; -852.791
636.349; -148.186; -586.115; -474.793
636.622;  582.035; 1695.874; 1392.228
636.894;   30.981; -474.120; -909.784
637.167;  -69.170; -836.127; -789.771
637.439;  -30.272; -278.128; -213.770
637.712;  -88.864; -312.126; -293.772
637.984; -183.093; -635.116; -707.791
638.257;  341.256;  515.877;  488.222
638.529;  157.148; -881.125; -924.776
638.802;    4.622; -508.128; -449.769
639.074; -273.133; -927.122; -952.781
639.346; -248.120; -942.135; -930.757
639.619;    5.829;  -79.142; -319.744
639.891;   -3.138;  -83.122; -168.779
640.163; -174.136; -689.122; -756.780
640.435;   37.365;  273.878;  103.220
640.708;    5.867;  -72.122; -132.780
640.980;  -99.332; -366.122; -362.781
641.252;  111.269;  -25.121;  -71.781
641.524; 1063.671;  580.879;  573.219
641.796;  762.572;-1094.121; -907.782
642.068;  127.774; -191.121; -300.782
642.340; -134.325; -486.121; -566.783
642.613;  103.177;  294.880;  323.217
642.885; -252.822; -787.120; -878.783
643.157; -184.121; -810.120; -658.784
643.428;   68.181;  170.880;  218.216
643.700; -121.618; -498.120; -425.784
643.972;  -52.516;  -16.119; -133.785
644.244; -149.515; -474.119; -559.785
644.516;  -82.714; -250.119; -114.786
644.788;  160.388;  662.881;  548.214
645.060;  -14.511;  -12.119; -124.786
645.332; -155.809; -525.118; -535.787
645.603;   96.392;  479.882;  342.213
645.875; -114.006; -334.118; -369.787
646.147;  357.595; 1487.882; 1242.212
646.418; -214.604; -931.117; -918.788
646.690;  -24.502; -714.117; -715.789
646.962;  -23.201; -413.117; -451.789
647.233;   -0.399;   15.883;   11.211
647.505; -155.398; -595.117; -475.790
647.776;   74.804;  328.884;  229.210
648.048;  -49.495; -248.116; -418.790
648.320; -190.694; -752.116; -679.791
648.591; -284.792;-1055.116; -958.791
648.862; -135.691; -505.116; -577.792
649.134;   42.611;  115.885;  198.208
649.405; -160.688; -661.115; -618.792
649.677; -133.787; -475.115; -598.793
649.948;  -39.485; -181.115; -296.793
650.219;   11.716;  -37.115; -147.793
650.491; -138.182; -431.114; -520.794
650.762; -196.281; -705.114; -731.794
651.033; -133.079; -437.114; -424.795
651.304; -222.878; -743.114; -728.795
651.576; -138.877; -680.114; -645.795
651.847;  -61.675; -250.113; -140.796
652.118;   14.326;  -32.113; -189.796
652.389; -197.372; -639.113; -722.796
652.660;  -32.971; -147.113;  -89.797
652.931; -254.969; -897.112; -871.797
653.202; -134.068; -382.112; -541.798
653.473; -156.067; -633.112; -533.798
653.744;   -6.865; -595.112; -590.798
654.015;   19.736; -356.112; -303.799
654.286; -163.362; -642.111; -663.799
654.557; -130.161; -586.111; -521.799
654.828; -274.259;-1114.111;-1088.800
655.099; -121.258; -404.111; -291.800
655.370; -169.157; -427.111; -543.801
655.641; -205.055; -656.110; -714.801
655.911; -172.954; -618.110; -638.801
656.182;  129.848;  437.890;  387.198
656.453;  237.549;  830.890;  746.198
656.724; -127.150; -466.110; -426.802
656.994; -130.648; -553.109; -568.803
657.265; -210.847; -862.109; -873.803
657.536; -135.045; -500.109; -377.804
657.806; -184.544; -561.109; -593.804
658.077; -255.442; -866.109; -950.804
658.347; -162.441; -523.108; -598.805
658.618; -184.340; -646.108; -694.805
658.888;  -13.638;  -41.108;  112.195
659.159; -142.137; -432.108; -548.806
659.429;  -98.435; -292.108; -349.806
659.700;  -45.134; -435.107; -390.807
659.970;  -76.332; -370.107; -359.807
660.241; -125.531; -754.107; -921.807
660.511;  247.370; -147.107; -174.808
660.781;  -94.028; -793.106; -748.808
661.052; -108.427; -222.106; -381.808
661.322;  -26.025;   21.894;   -9.809
661.592;   65.876;  257.894;  148.191
661.862; -113.723; -369.106; -382.810
662.133; -167.521; -551.105; -502.810
662.403; -241.820; -770.105; -676.810
662.673;  -73.318; -256.105; -213.811
662.943; -171.717; -612.105; -551.811
663.213;  -24.315;  -85.105;  -81.811
663.483; -157.914; -593.104; -568.812
663.753;  -60.213; -194.104; -152.812
664.023;    2.989;   68.896;  -32.813
664.293;  -87.510; -319.104; -126.813
664.563; -200.008; -694.104; -648.813
664.833; -224.307; -743.103; -608.814
665.103; -227.105; -730.103; -793.814
665.373; -214.404; -766.103; -806.814
665.643; -220.303; -863.103; -918.815
665.913;  -87.901; -534.103; -714.815
666.182;  -69.900; -685.102; -719.816
666.452;   97.602;  -22.102;  -89.816
666.722; -173.297; -724.102; -784.816
666.992; -251.795; -948.102; -921.817
667.261; -210.994; -824.102; -808.817
667.531;  106.207;  134.899;   45.183
667.801;  195.109; -440.101; -412.818
668.070;  286.210;  714.899;  697.182
668.340; -237.888; -883.101; -840.819
668.609;  120.713;  588.900;  301.181
668.879; -168.186; -490.100; -558.819
669.149; -131.984; -539.100; -516.820
669.418; -208.183; -698.100; -726.820
669.688; -103.581; -482.100; -666.820
669.957;  -85.080; -423.099; -546.821
670.226;  -69.678; -268.099; -331.821
670.496; -134.377; -431.099; -635.822
670.765; -139.976; -418.099; -501.822
671.034; -225.774; -872.099; -828.822
671.304;   -6.873;   55.902; -111.823
671.573; -307.571;-1085.098; -957.823
671.842;  -21.670; -380.098; -294.823
672.112;  -74.868; -692.098; -586.824
672.381;  -35.567; -239.098; -214.824
672.650; -261.166;-1005.097;-1021.825
672.919; -213.764; -631.097; -507.825
673.188; -190.763; -681.097; -878.825
673.457; -300.561;-1101.097;-1143.826
673.726; -148.060; -579.096; -646.826
673.995; -103.859; -533.096; -479.826
674.265;  -81.657; -263.096; -333.827
674.534;  -40.056; -183.096; -235.827
674.802;  -91.754; -618.096; -703.828
675.071;  368.047; -886.095; -801.828
675.340; 1852.749; -464.095; -339.828
675.609;  722.550;  103.905;   82.171
675.878; -151.249; -949.095; -893.829
676.147;   20.853;  -26.095;   -8.829
676.416;   18.454; -210.094; -294.830
676.685;  678.056; 1000.906; -622.830
676.953;  -29.843; -603.094; -452.831
677.222;  -76.341; -193.094; -273.831
677.491;  -43.740;  -24.094; -127.831
677.759;   -9.539;   11.907;  172.168
678.028;  -59.537; -279.093; -222.832
678.297;   -2.636;   71.907;  197.168
678.565; -272.234; -898.093; -944.833
678.834;  -90.533; -311.093; -268.833
679.102; -155.131; -411.092; -391.834
679.371; -262.830; -898.092; -727.834
679.639; -239.829; -797.092; -786.834
679.908; -226.327; -794.092; -724.835
680.176; -283.026; -895.091; -941.835
680.445; -118.424; -346.091; -352.835
680.713;    8.377;  -58.091;  -23.836
680.982; -184.722; -523.091; -525.836
681.250; -162.920; -578.091; -507.837
681.518; -167.919; -534.090; -751.837
681.787;  -75.217; -204.090; -167.837
682.055; -141.516; -490.090; -422.838
682.323; -274.814; -993.090; -992.838
682.591;  -32.913; -216.090; -538.838
682.859;   22.188;    9.911;  -35.839
683.128;   68.390;  232.911;  497.161
683.396; -324.509;-1102.089;-1122.840
683.664;  -66.707; -241.089;   21.160
683.932;   45.094;  144.911;  -76.840
684.200; -141.904; -576.088; -320.841
684.468;  -47.803;  -73.088; -124.841
684.736;  -54.202; -214.088; -175.841
685.004; -293.600;-1024.088; -982.842
685.272; -181.399; -880.088; -774.842
685.540; -165.197; -499.087; -557.843
685.808; -195.996; -651.087; -682.843
686.076; -227.294; -894.087; -969.843
686.343; -156.393; -601.087; -815.844
686.611;  -14.192; -195.087; -224.844
686.879;  214.710; -530.086; -553.844
687.147; 1834.611; -483.086; -480.845
687.414;  528.313;  -12.086; -169.845
687.682; -139.386; -658.086; -757.846
687.950;  223.815;  259.915;  263.154
688.217; -174.183; -792.085; -760.846
688.485; -133.082; -632.085; -636.847
688.753;  241.420;  -11.085; -102.847
689.020;  -93.179; -820.085; -851.847
689.288; -195.877; -853.084; -787.848
689.555;  -48.676; -195.084; -148.848
689.823;  -47.775; -241.084; -345.849
690.090; -182.973; -546.084; -651.849
690.358; -262.172; -877.084; -897.849
690.625;  -13.070;  120.917;   45.150
690.892; -154.169; -403.083; -369.850
691.160;   13.633;   72.917;  -35.850
691.427;   24.134;  141.917;  130.149
691.694; -246.965; -855.083; -929.851
691.962; -312.163;-1177.082;-1060.852
692.229;   47.438;  127.918;   56.148
692.496;   61.740;  130.918;  -49.852
692.763;  -42.759; -164.082; -201.853
693.031; -191.258; -739.082; -716.853
693.298; -134.856; -509.081; -368.853
693.565;  158.445; -155.081; -163.854
693.832;  644.847;   -5.081;   -9.854
694.099;  -66.552; -643.081; -642.855
694.366; -203.050; -882.081; -896.855
694.633; -183.849; -920.080; -633.855
694.900; 1344.652; 4367.920; -114.856
695.167;  187.754; -214.080; -380.856
695.434;  -76.445; -646.080; -623.856
695.701;  154.957;  121.921;  -61.857
695.968;  173.958; -365.079; -361.857
696.234;  618.660; -415.079; -646.858
696.501; 6796.161; -776.079; -614.858
696.768; 3237.162; -554.079; -617.858
697.035;  106.064; -632.078; -667.859
697.302;  -79.835; -448.078; -552.859
697.568;  -55.133; -458.078; -497.859
697.835; -125.832; -683.078; -624.860
698.102;  -96.230; -498.078; -407.860
698.368;  151.871;  384.923;  396.139
698.635;  -96.128;  -47.077; -424.861
698.901;  -47.926; -240.077; -348.861
699.168;  -32.325; -534.077; -456.862
699.435;   41.377;  -72.077;  -13.862
699.701; -265.422; -868.076; -764.862
699.968; -101.521;  144.924; -441.863
700.234; -226.019; -783.076; -822.863
700.500; -122.718; -448.076; -539.864
700.767;  -10.316;   -1.075;   26.136
701.033; -253.015;-1015.075; -963.864
701.299; -111.513; -450.075; -483.865
701.566;  217.288;  950.925;  763.135
701.832;   31.089;  -31.075;  -76.865
702.098; -209.709;-1054.074;-1034.866
702.365; -257.508;-1098.074;-1030.866
702.631; -219.406;-1038.074;-1063.867
702.897;  682.095; -765.074; -676.867
703.163; 1202.197;  348.926;  254.133
703.429;   51.198; -256.073; -273.868
703.695; -153.901; -796.073; -792.868
703.961;   -6.299; -214.073; -210.868
704.227; -129.998; -630.073; -725.869
704.493;  230.404;  613.927;  510.131
704.759; -114.695; -565.072; -540.870
705.025;   -5.094; -203.072; -194.870
705.291; -114.692; -666.072; -562.870
705.557;  286.409;  719.928;   34.129
705.823;  -92.389; -742.072; -694.871
706.089;   29.512; -307.071; -326.871
706.355;  243.714; -315.071; -244.872
706.620; 3644.115; -776.071; -729.872
706.886; 4808.616; -309.071; -362.873
707.152;  274.118; -818.070; -973.873
707.418; -235.781;-1153.070;-1186.873
707.683;  -76.979; -550.070; -530.874
707.949; -147.178; -547.070; -578.874
708.215;  -44.876; -129.070; -207.874
708.480; -113.675; -520.069; -420.875
708.746;   63.326;   68.931;   28.125
709.011; -165.672; -578.069; -612.876
709.277; -124.471; -538.069; -543.876
709.542; -110.769; -428.069; -387.876
709.808;   -7.968;  -59.068;   89.123
710.073; -168.766; -577.068; -695.877
710.339;  -82.365; -242.068; -228.877
710.604; -132.364; -780.068; -845.878
710.869;  122.438; -277.068; -366.878
711.135; -165.261; -715.067; -628.879
711.400; -178.559; -507.067; -608.879
711.665; -130.658; -404.067; -479.879
711.931; -196.257; -661.067; -677.880
712.196; -234.055; -876.067; -954.880
712.461;  -33.354; -402.066; -490.880
712.726;  -79.852; -727.066; -771.881
712.991; -189.051; -647.066; -664.881
713.256;  -73.849; -350.066; -332.882
713.521; -121.048; -417.065; -381.882
713.787; -108.447; -454.065; -472.882
714.052;  -77.745; -214.065; -400.883
714.317; -254.444;-1045.065; -981.883
714.581;  550.258; -374.065; -268.883
714.846;  577.059; -822.064; -888.884
715.111;  152.761;  261.936;  257.116
715.376;  -48.038;  -86.064; -223.885
715.641;  -98.137; -365.064; -367.885
715.906;   51.565;   15.936; -551.885
716.171;  118.566;  221.937;  209.114
716.436;   37.468;  -78.063; -104.886
716.700; -239.631; -818.063; -692.886
716.965; -199.630; -794.063; -807.887
717.230; -118.228; -339.063; -392.887
717.494;   -0.827;  -40.062; -134.888
717.759; -190.225; -784.062; -640.888
718.024;   52.176;  269.938;  250.112
718.288;  189.878;  685.938;  395.111
718.553; -270.721; -803.062; -977.889
718.817; -259.820; -883.061; -899.889
719.082;  -37.018; -115.061; -125.890
719.346; -276.817;-1000.061; -947.890
719.611;  -63.715; -300.061; -255.891
719.875; -182.114; -568.060; -537.891
720.140; -151.912; -453.060; -603.891
720.404;  -14.311; -136.060; -249.892
720.668;  426.090; -475.060; -411.892
720.933;  219.792;  146.940;  137.108
721.197; -172.007; -667.059; -600.893
721.461; -255.605; -851.059; -826.893
721.725;   15.496;  -21.059; -250.894
721.990; -101.602; -284.059; -204.894
722.254;   12.699;  -26.059; -108.894
722.518; -109.800; -286.058; -442.895
722.782; -173.098; -743.058; -594.895
723.046;  203.703;  614.942;  570.105
723.310;   66.505;  374.942;  210.104
723.574; -174.994; -654.058; -614.896
723.838; -190.493; -576.057; -642.897
724.102;  -65.091; -226.057; -239.897
724.366; -262.590;-1032.057; -978.897
724.630; -163.588; -749.057; -571.898
724.894; -156.787; -722.057; -514.898
725.158;   -9.685;   38.944; -295.898
725.422;  -94.184; -394.056; -327.899
725.685; -125.283; -441.056; -349.899
725.949; -189.181; -566.056; -519.900
726.213; -195.580; -732.056; -811.900
726.477;  -93.678;-1020.055; -933.900
726.740;   49.123; -274.055; -104.901
727.004;  124.825; -384.055; -510.901
727.268; 1718.726; -442.055; -400.901
727.531;  292.227; -961.055; -775.902
727.795; -159.171; -713.054; -673.902
728.059; -177.170; -552.054; -557.903
728.322; -181.668; -841.054; -669.903
728.586;  -97.167; -692.054; -701.903
728.849; -199.566; -695.053; -756.904
729.112; -234.764; -812.053; -912.904
729.376; -257.063; -959.053; -905.904
729.639; -139.061; -536.053; -536.905
729.903; -211.560; -733.053; -699.905
730.166;  -67.658; -437.052; -399.906
730.429;  -51.857; -317.052; -468.906
730.693; -165.956; -355.052; -894.906
730.956;  296.546;  810.948;  651.093
731.219;  353.547; -310.052; -103.907
731.482; -107.051;-1003.051; -894.907
731.745; -150.550; -794.051; -935.908
732.009;   33.052;  -30.051;   50.092
732.272; -194.047; -904.051; -771.909
732.535;  -78.446; -300.051; -310.909
732.798; -311.644;-1083.050;-1166.909
733.061; -132.143; -430.050; -456.910
733.324;    3.659;   31.950; -180.910
733.587;   81.460;  290.950;  365.090
733.850; -146.738; -973.049;-1050.911
734.113;   38.163;   33.951;   32.089
734.376;  -61.436; -328.049; -447.912
734.639;  331.066; 1188.951; 1011.088
734.901;   10.467; -180.049; -402.912
735.164;  174.369; -883.048; -837.913
735.427;  663.470; -166.048; -355.913
735.690;   50.271; -205.048; -234.913
735.952; -229.027; -923.048; -925.914
736.215; -198.926;-1113.048;-1009.914
736.478; -107.024; -771.047; -774.915
736.740;  150.877;   33.953;  129.085
737.003;  311.579; -658.047; -672.915
737.266; 2371.580;  -94.047;   46.084
737.528;  115.681; -682.047; -660.916
737.791;  144.783; -316.046; -327.916
738.053;  631.184;  465.954;  649.083
738.316; 6841.986; -162.046; -136.917
738.578; 4340.887; -770.046; -736.918
738.841;  227.589; -382.046; -446.918
739.103;  -23.510; -875.045; -777.918
739.365;  328.991;   79.955;  -69.919
739.628; -137.807; -884.045; -805.919
739.890; -153.006; -758.045; -710.919
740.152; -118.504; -692.044; -754.920
740.414;  -67.503; -408.044; -359.920
740.677; -160.902; -785.044; -634.921
740.939; -150.500; -587.044; -487.921
741.201;   81.601; -432.044; -572.921
741.463;  -87.297; -689.043; -745.922
741.725;  -37.996;  -21.043; -199.922
741.987;   67.106;  220.957;  116.078
742.249; -176.693; -751.043; -859.923
742.511;   -7.792; -703.043; -794.923
742.773;  -51.890; -546.042; -546.924
743.035;  216.111;  796.958;  533.076
743.297; -202.387; -963.042;-1013.924
743.559;  360.514; -278.042; -262.925
743.821; -127.184; -735.042; -744.925
744.083;  -14.783;  -44.041; -149.925
744.345; -219.482; -869.041; -892.926
744.607;   16.320;   75.959;  122.074
744.868; -174.679; -490.041; -554.927
745.130; -288.777; -994.041;-1008.927
745.392;   51.224;   -1.040;  -44.927
745.653;  -54.374; -411.040; -378.928
745.915;  240.327;  896.960;  631.072
746.177;   28.428;   35.960;  -43.928
746.438; -127.670; -428.040; -543.929
746.700; -196.269; -947.039; -988.929
746.961; -135.467; -659.039; -740.930
747.223;   63.534; -190.039;  -74.930
747.484;  -41.065; -391.039; -471.930
747.746;   54.237;  -23.038; -106.931
748.007;  -46.162; -647.038; -689.931
748.269;  145.940; -468.038; -440.931
748.530;  154.241; -852.038; -638.932
748.791;   88.743; -354.038; -420.932
749.053;  349.044;  286.963;  163.067
749.314;  258.345; -236.037; -169.933
749.575;  114.547; -945.037; -905.933
749.836;  488.948; -217.037;   86.066
750.098; 1582.850;  -60.037;  -21.934
750.359;20694.651;  414.964;  555.066
750.620; 4924.153; -121.036; -220.935
750.881;  495.454; -585.036; -513.935
751.142;  679.755; -950.036; -938.936
751.403;10496.057; -789.036; -705.936
751.664; 3989.558;-1034.035; -999.936
751.925;  302.760; -175.035; -262.937
752.186;  197.361; -298.035; -278.937
752.447;  -11.238; -590.035; -445.937
752.708;  -62.836; -532.035; -648.938
752.969;  -93.435; -566.034; -576.938
753.230; -128.333; -777.034; -672.939
753.491; -141.132; -650.034; -631.939
753.751;   60.970;  109.966;   19.061
754.012;  103.571;  258.967;  181.060
754.273;  -25.928; -174.033;  -71.940
754.534;  -86.526; -487.033; -580.940
754.794; -221.625; -926.033; -911.941
755.055;  269.277; 1051.967;  881.059
755.316; -138.522; -700.032; -566.942
755.576;  -88.320; -606.032; -576.942
755.837; -114.019; -527.032; -695.942
756.097; -119.118; -530.032; -564.943
756.358; -193.316; -725.032; -770.943
756.618; -161.015; -705.031; -641.943
756.879;  -35.213; -254.031; -349.944
757.139; -281.312;-1098.031;-1116.944
757.400; -127.810; -538.031; -553.945
757.660;  -68.409; -365.031; -401.945
757.920;  -48.208; -266.030; -228.945
758.181;  -90.206; -468.030; -351.946
758.441; -199.905; -870.030; -809.946
758.701;  -62.803; -308.030; -215.946
758.961;  -51.402; -220.030; -278.947
759.222;  -95.501; -574.029; -502.947
759.482; -153.099; -683.029; -723.948
759.742; -198.298; -706.029; -547.948
760.002;    1.504;  -83.029; -143.948
760.262;   22.705;   50.972;  182.051
760.522; -108.493; -498.028; -574.949
760.782; -152.392; -738.028; -612.949
761.042;  -71.291; -618.028; -573.950
761.302;   90.711;   55.972;  -18.950
761.562;   44.212; -164.027; -154.951
761.822;  -14.386; -710.027; -551.951
762.082; -163.885;-1104.027;-1093.951
762.342;   38.017; -328.027; -403.952
762.601;   24.418; -567.027; -506.952
762.861;  268.819; -281.026; -207.952
763.121;  476.921; -406.026; -411.953
763.381; 8824.222; -499.026; -485.953
763.640; 8626.224; -139.026; -307.954
763.900;  393.225; -242.026; -203.954
764.160;   98.026; -458.025; -491.954
764.419;  -73.172; -726.025; -782.955
764.679; -135.071; -795.025; -726.955
764.939;   -9.769; -124.025; -210.955
765.198; -153.168; -608.025; -563.956
765.458; -128.266; -710.024; -612.956
765.717; -115.065; -454.024; -590.957
765.976;  -88.164; -428.024; -411.957
766.236; -172.662; -475.024; -610.957
766.495;   50.739;  260.977;   73.042
766.755; -264.659;-1090.023; -987.958
767.014;  -95.558; -594.023; -665.958
767.273;  -94.056; -373.023; -397.959
767.533;  -85.655; -228.023; -307.959
767.792;  -20.654; -151.022; -188.960
768.051;  -70.752; -228.022; -276.960
768.310; -157.851; -546.022; -650.960
768.569;    0.951; -161.022;    4.039
768.828;  -67.748; -285.022; -363.961
769.088; -256.146;-1050.021; -942.961
769.347; -150.845; -755.021; -599.962
769.606; -216.244; -876.021; -857.962
769.865; -282.042;-1016.021;-1033.963
770.124;   -3.941; -411.021; -336.963
770.383; -204.539; -778.020; -910.963
770.641;  -82.138; -398.020; -400.964
770.900; -225.837; -953.020; -846.964
771.159; -166.135; -851.020; -951.964
771.418; -151.334; -917.020; -779.965
771.677;   88.668; -224.019; -293.965
771.936;  -14.231; -794.019; -865.966
772.194; 1748.871; -465.019; -437.966
772.453; 7776.072; -213.019; -391.966
772.712;  637.973;  416.982;  329.033
772.970;   78.975;   32.982;   63.033
773.229;   65.876;  -22.018;  102.033
773.488; -203.322; -814.018; -770.968
773.746;  120.979;  296.982;  335.032
774.005;   27.181;  190.983;  -22.969
774.263;   56.482;  243.983;  177.031
774.522; -137.617; -422.017; -548.969
774.780; -119.215; -484.017; -417.970
775.039; -159.814; -551.017; -531.970
775.297;  -25.212; -135.016; -351.970
775.555; -183.911; -489.016; -612.971
775.814; -193.210; -618.016; -570.971
776.072; -216.108; -749.016; -740.971
776.330; -151.207; -630.016; -520.972
776.589; -225.505; -703.015; -721.972
776.847; -247.104; -645.015; -624.973
777.105; -303.002;-1016.015;-1032.973
777.363; -122.401; -459.015; -454.973
777.621; -244.900; -660.015; -717.974
777.879;   -8.298;  -42.014;   32.026
778.138; -156.597; -554.014; -717.974
778.396; -174.895; -585.014; -526.975
778.654; -300.494;-1015.014; -970.975
778.912;  -98.892; -269.014; -371.976
779.170; -223.091; -880.013; -803.976
779.427; -278.690; -922.013; -897.976
779.685; -253.688; -880.013; -832.977
779.943; -168.887; -654.013; -593.977
780.201; -271.785; -964.012; -883.978
780.459; -186.484; -651.012; -610.978
780.717; -139.482; -440.012; -390.978
780.974; -130.481; -449.012; -490.979
781.232;  -98.080; -358.012; -338.979
781.490; -184.478; -551.011; -472.979
781.747; -160.077; -555.011; -476.980
782.005;   82.425;  462.989;  254.020
782.263; -287.874; -542.011;-1004.981
782.520; -133.273; -326.011; -501.981
782.778; -299.971;-1013.010;-1051.981
783.035; -306.570; -962.010; -938.982
783.293;  -52.568; -248.010; -206.982
783.550;  -67.767; -134.010; -198.982
783.808; -257.765; -764.010; -776.983
784.065; -260.464; -745.009; -874.983
784.322;  -61.363;   25.991;  -86.984
784.580; -233.361; -915.009; -771.984
784.837; -139.360; -392.009; -466.984
785.094; -258.458; -783.009; -762.985
785.352; -134.357; -304.008; -404.985
785.609; -241.255; -934.008; -839.985
785.866;  -96.654; -345.008; -401.986
786.123; -179.453; -639.008; -583.986
786.380; -196.551; -665.008; -604.987
786.637;  -96.750; -225.007; -380.987
786.895; -110.548; -456.007; -543.987
787.152;  -34.047; -135.007; -267.988
787.409;  -52.946; -123.007; -225.988
787.666; -137.544; -299.006; -378.988
787.923; -170.543; -616.006; -695.989
788.179; -164.241; -551.006; -584.989
788.436; -176.540; -585.006; -585.990
788.693;  -35.538;  -92.006;  -87.990
788.950;   65.963; -125.005; -112.990
789.207;    8.364; -381.005; -372.991
789.464;  -84.534; -161.005; -301.991
789.720;   43.467;  150.995;  110.009
789.977; -291.131;-1003.005; -671.992
790.234;  -55.630;   44.996;  -66.992
790.490; -248.028; -884.004;-1031.993
790.747;  -49.727;  -85.004;   22.007
791.004;  -53.726; -426.004; -348.993
791.260; -129.924; -430.004; -560.994
791.517; -222.723; -843.003; -788.994
791.773;  -69.721; -379.003; -342.994
792.030; -172.220; -596.003; -660.995
792.286; -177.718; -686.003; -636.995
792.543;    4.583;  -74.002; -159.995
792.799;  -85.716; -584.002; -382.996
793.055; -300.914;-1179.002;-1210.996
793.312; -206.613; -827.002; -816.997
793.568; -174.611; -746.002; -599.997
793.824;   -2.910; -226.001; -284.997
794.081;  -18.509; -447.001; -508.998
794.337;  -15.407; -664.001; -561.998
794.593; 1400.494; -319.001; -271.999
794.849; 5742.696; -746.001; -772.999
795.105;  240.697; -270.000; -261.999
795.361;  -43.501; -490.000; -457.000
795.617; -174.800; -875.000; -945.000
795.873; -106.900; -360.000; -407.000
796.129;  -84.400; -368.000; -306.000
796.385;  -34.600; -124.000; -156.000
796.641;  147.600;  412.000;  550.000
796.897; -165.500; -666.000; -635.000
797.153;  128.100;  453.000;  357.000
797.409; -237.000; -785.000; -868.000
797.665; -167.000; -625.000; -732.000
797.921; -210.400; -775.000; -762.000
798.176; -131.400; -744.000; -747.000
798.432; -196.300; -824.000; -596.000
798.688; -240.100;-1174.000;-1078.000
798.943;   33.400; -165.000; -147.000
799.199; -166.800;-1005.000; -959.000
799.455;  257.200;  369.000;  316.000
799.710;  -77.800; -813.000; -380.000
799.966;  152.000; -162.000; -160.000
800.221;  236.500; -638.000; -721.000
800.477; 6770.200; -743.000; -710.000
800.732; 4973.600; -773.000; -800.000
800.988;  511.800;  205.000;  -19.000
801.243; 1891.600; -454.000; -344.000
801.498; 6813.400; -814.000; -739.000
801.754;  364.600; -289.000; -163.000
802.009;   71.600; -257.000; -335.000
802.264; -185.000; -967.000;-1033.000
802.520;   33.500;  222.000;   -3.000
802.775; -109.800; -524.000; -359.000
803.030;  113.800;  395.000;  356.000
803.285; -224.200; -840.000; -903.000
803.540; -149.700; -686.000; -699.000
803.795; -103.500; -648.000; -583.000
804.051;  -64.300; -279.000; -346.000
804.306;   50.600;  168.000;  128.000
804.561;  137.000;  451.000;  362.000
804.816;  241.800;  714.000;  861.000
805.071;  -21.900; -185.000; -280.000
805.325;   78.700; -257.000; -427.000
805.580; -219.600; -841.000; -877.000
805.835;  -39.400; -204.000; -297.000
806.090; -152.800; -760.000; -676.000
806.345;  -56.900; -344.000; -264.000
806.600; -101.100; -549.000; -632.000
806.854;  -94.100; -408.000; -538.000
807.109;  -72.600; -493.000; -577.000
807.364;  -27.500; -407.000; -328.000
807.618;  -58.600; -415.000; -381.000
807.873;  -60.100; -470.000; -494.000
808.128;   77.900; -257.000; -518.000
808.382;   94.300; -224.000; -332.000
808.637;   32.800; -440.000; -511.000
808.891;  162.000; -257.000; -180.000
809.146;  -24.900; -902.000; -794.000
809.400;   87.400; -848.000; -923.000
809.654;  210.100; -779.000; -551.000
809.909;  305.000; -841.000; -927.000
810.163; 5611.900; -813.000; -651.000
810.418;11887.200; -940.000; -861.000
810.672;  782.700; -685.000; -690.000
810.926;  689.600; -993.000; -973.000
811.180; 1625.800; -439.000; -372.000
811.434;36862.800;  240.000;  135.000
811.689;12267.700; -231.000; -365.000
811.943;  518.400; -936.000; -953.000
812.197;  249.700; -893.000; -671.000
812.451;   83.800; -379.000; -514.000
812.705; -113.900; -809.000; -619.000
812.959;  -34.500; -263.000; -388.000
813.213;  -16.300; -283.000; -209.000
813.467;  147.600;  470.000;  253.000
813.721; -191.800; -764.000; -792.000
813.975; -221.200; -826.000; -877.000
814.229;   91.300;  430.000;  353.000
814.482; -135.800; -517.000; -566.000
814.736; -225.400; -766.000; -744.000
814.990; -229.900; -779.000; -872.000
815.244;  -65.700; -228.000; -285.000
815.497; -168.200; -636.000; -601.000
815.751;   10.100; -141.000;   82.000
816.005; -134.400; -470.000; -586.000
816.258;  -92.700; -510.000; -363.000
816.512; -163.600; -693.000; -610.000
816.766;   39.200;  121.000;  157.000
817.019;   56.400;  148.000;  149.000
817.273; -246.700;-1000.000; -802.000
817.526;  -25.100; -206.000; -173.000
817.779; -213.100;-1049.000; -960.000
818.033; -188.400; -693.000; -807.000
818.286; -209.500; -725.000; -792.000
818.540; -130.300; -403.000; -403.000
818.793; -119.700; -402.000; -489.000
819.046; -154.000; -582.000; -520.000
819.299;  -37.900; -157.000; -166.000
819.553; -177.000; -552.000; -592.000
819.806; -308.100;-1016.000; -838.000
820.059;  -79.100; -334.000; -354.000
820.312;   23.000;  152.000;  185.000
820.565;   23.900;  110.000;  -27.000
820.818;  -68.900;  -59.000; -173.000
821.071; -289.500;-1041.000; -957.000
821.324; -168.200; -536.000; -540.000
821.577; -159.000; -457.000; -483.000
821.830;  -92.900; -270.000; -172.000
822.083; -227.800; -733.000; -288.000
822.336;  -73.800; -261.000; -167.000
822.589; -233.200; -805.000; -688.000
822.842; -235.300; -875.000; -770.000
823.094; -336.200;-1076.000;-1114.000
823.347; -258.300; -925.000; -729.000
823.600;   53.200;  402.000;  187.000
823.853;  -86.000; -311.000; -267.000
824.105; -132.100; -331.000; -575.000
824.358; -197.300; -617.000; -716.000
824.611;   33.800;  234.000;   40.000
824.863; -149.400; -612.000; -591.000
825.116;   11.000;  -33.000;   27.000
825.368;  -35.500; -366.000; -372.000
825.621;   50.700; -186.000; -240.000
825.873; -107.800; -704.000; -737.000
826.126;  338.300; -669.000; -641.000
826.378; 7366.000; -389.000; -505.000
826.630; 1312.400; -890.000; -898.000
826.883; -102.100; -754.000; -693.000
827.135;  -61.600; -279.000; -270.000
827.387; -247.800; -893.000; -839.000
827.639;  -21.100;  -86.000;   32.000
827.892; -215.400; -742.000; -582.000
828.144; -259.400; -848.000; -804.000
828.396;  -18.500;  104.000;  -80.000
828.648; -131.700; -440.000; -333.000
828.900; -249.100; -702.000; -795.000
829.152; -208.600; -684.000; -683.000
829.404;  -98.400; -215.000; -267.000
829.656;   33.100;  321.000;  214.000
829.908;    5.500;  393.000;  229.000
830.160; -275.700;-1064.000;-1047.000
830.412; -158.500; -481.000; -430.000
830.664; -209.200; -557.000; -665.000
830.916;  -93.500; -268.000; -206.000
831.167; -311.400;-1073.000; -951.000
831.419; -175.400; -623.000; -566.000
831.671; -231.300; -764.000; -809.000
831.923; -144.300; -311.000; -447.000
832.174; -101.700; -273.000; -331.000
832.426; -176.200; -493.000; -582.000
832.678; -333.300;-1043.000;-1091.000
832.929; -282.800; -947.000; -935.000
833.181; -177.700; -575.000; -677.000
833.432;  -68.200;  -59.000; -186.000
833.684;    1.500;  112.000;  -27.000
833.935; -186.600; -610.000; -566.000
834.187; -237.800; -829.000; -823.000
834.438;  -24.300;  -58.000;  -25.000
834.689; -104.600; -255.000; -123.000
834.941;  -56.900; -343.000; -244.000
835.192; -170.300; -590.000; -533.000
835.443; -142.100; -419.000; -506.000
835.695;   14.200;  138.000;  -16.000
835.946; -172.600; -608.000; -378.000
836.197; -176.400; -599.000; -622.000
836.448; -159.400; -528.000; -395.000
836.699;  -87.800; -253.000; -341.000
836.950;    0.200;   72.000;    7.000
837.201; -285.900;-1003.000; -987.000
837.452;  -63.700; -356.000; -170.000
837.703; -248.400; -791.000; -737.000
837.954; -100.900; -205.000; -365.000
838.205; -201.500;-1029.000;-1008.000
838.456;   28.300; -196.000; -282.000
838.707;  -56.400; -423.000; -519.000
838.958; -114.300; -634.000; -647.000
839.209;  205.000;   18.000;   40.000
839.460;    3.700; -439.000; -201.000
839.710;   41.900; -135.000; -297.000
839.961;  384.800;  730.000;  612.000
840.212;  140.100; -382.000; -497.000
840.462;  802.300; -328.000; -277.000
840.713;12995.300; -571.000; -536.000
840.964; 4394.500;  -62.000; -143.000
841.214;  295.600; -384.000; -624.000
841.465;  413.300; -214.000; -141.000
841.715;  339.400; -417.000; -380.000
841.966;  472.600; -746.000; -685.000
842.216; 8729.900; -330.000; -431.000
842.466;27996.400; -169.000; -313.000
842.717; 1187.400; -964.000; -952.000
842.967;  176.300; -635.000; -641.000
843.217;  203.500;   20.000;   28.000
843.468;   53.600; -104.000; -132.000
843.718; -155.100; -718.000; -726.000
843.968; -221.900; -837.000; -765.000
844.218;  -74.400; -315.000; -262.000
844.469; -107.600; -577.000; -561.000
844.719; -174.600; -537.000; -682.000
844.969; -152.700; -550.000; -580.000
845.219; -240.700; -814.000; -862.000
845.469; -111.200; -392.000; -342.000
845.719; -240.700; -792.000; -884.000
845.969;   21.400;  119.000;  174.000
846.219; -186.200; -738.000; -720.000
846.469;   91.400;  464.000;  432.000
846.718;  -37.200; -115.000;   31.000
846.968; -226.800; -827.000; -827.000
847.218;  -68.400; -224.000; -371.000
847.468; -171.200; -586.000; -555.000
847.718; -275.100; -827.000; -798.000
847.967; -254.800; -826.000; -915.000
848.217; -143.700; -449.000; -569.000
848.467; -108.000; -405.000; -376.000
848.716; -212.000; -708.000; -725.000
848.966;  -80.000; -372.000; -358.000
849.215; -137.100; -428.000; -419.000
849.465; -168.800; -785.000; -615.000
849.714; -315.700;-1132.000;-1150.000
849.964; -159.100; -551.000; -613.000
850.213;  -83.800; -393.000; -355.000
850.463;   97.100;  137.000;  340.000
850.712; -119.200; -542.000; -567.000
850.961; -128.000; -739.000; -678.000
851.211;  -30.500; -513.000; -504.000
851.460;   -8.100; -635.000; -650.000
851.709;  377.300;  -25.000;   18.000
851.958; 6944.500; -912.000; -750.000
852.208; 6964.100; -859.000; -879.000
852.457;  218.000; -181.000;  -13.000
852.706; -113.500; -791.000; -823.000
852.955;  -63.200; -507.000; -528.000
853.204; -184.000; -521.000; -461.000
853.453; -142.200; -418.000; -458.000
853.702; -222.000; -660.000; -750.000
853.951; -187.900; -532.000; -520.000
854.200; -170.500; -613.000; -562.000
854.449; -234.300; -695.000; -661.000
854.698; -126.200; -340.000; -279.000
854.946;  -95.600; -181.000; -284.000
855.195; -231.600; -843.000; -868.000
855.444; -140.400; -395.000; -420.000
855.693; -190.100; -345.000; -432.000
855.941; -197.000; -387.000; -516.000
856.190;  -71.200; -256.000; -382.000
856.439; -195.400; -652.000; -703.000
856.687;  -62.900;  -99.000;  -72.000
856.936; -180.100; -621.000; -323.000
857.184; -324.600;-1067.000;-1020.000
857.433; -149.000; -423.000; -512.000
857.681; -306.100; -989.000; -953.000
857.930; -108.300; -282.000; -433.000
858.178; -305.900; -856.000; -929.000
858.427; -250.300; -802.000; -781.000
858.675; -179.700; -377.000; -544.000
858.923; -171.700; -527.000; -819.000
859.172; -305.700;-1094.000;-1070.000
859.420; -140.100; -339.000; -239.000
859.668; -239.400; -624.000; -628.000
859.916;   -3.700;  109.000;  115.000
860.164; -243.800; -699.000; -603.000
860.413;   10.900; -878.000; -696.000
860.661;  -77.200; -709.000; -577.000
860.909; -115.800; -339.000; -325.000
861.157; -131.800; -277.000; -444.000
861.405; -221.200; -534.000; -670.000
861.653;   50.700;  310.000;  310.000
861.901;   28.500; -543.000; -613.000
862.149; -179.200; -801.000; -824.000
862.396; -104.900; -297.000; -187.000
862.644; -129.300; -368.000; -347.000
862.892;   -3.900;   98.000;  138.000
863.140; -172.500; -549.000; -530.000
863.388; -253.700; -815.000; -759.000
863.635; -207.200; -642.000; -601.000
863.883;   19.200;  231.000;  190.000
864.131; -141.900; -288.000; -357.000
864.378; -210.200; -675.000; -540.000
864.626; -166.700; -347.000; -415.000
864.873; -198.600; -556.000; -505.000
865.121; -216.000; -714.000; -799.000
865.368;  -73.400; -173.000;   75.000
865.616;  -52.800;  -33.000;  -40.000
865.863; -120.900; -462.000; -506.000
866.111; -261.800; -795.000; -824.000
866.358;  -70.000; -426.000; -420.000
866.605; 1654.000;  -64.000; -804.000
866.853; 1232.200; -621.000; -537.000
867.100; -186.000; -728.000; -775.000
867.347; -200.300; -672.000; -611.000
867.594; -204.700; -740.000; -714.000
867.841;   23.800;   97.000;   17.000
868.089; -276.500; -746.000; -698.000
868.336; -158.700; -477.000; -420.000
868.583; -211.900; -637.000; -741.000
868.830;  -47.200; -131.000; -170.000
869.077; -272.000; -859.000; -787.000
869.324; -205.700; -502.000; -458.000
869.571; -197.100; -398.000; -430.000
869.818; -158.600; -485.000; -439.000
870.065; -139.000; -439.000; -513.000
870.311; -169.100; -456.000; -542.000
870.558; -135.500; -332.000; -311.000
870.805; -108.100; -320.000; -384.000
871.052; -125.300; -494.000; -369.000
871.298;  -97.300; -204.000; -131.000
871.545;  -83.500; -151.000; -185.000
871.792;  -92.400; -173.000; -222.000
872.038;  -61.200;   43.000; -126.000
872.285; -187.600; -496.000; -387.000
872.532; -132.700; -357.000; -387.000
872.778;  105.100;  556.000;  403.000
873.025; -105.800; -384.000; -359.000
873.271;  101.600;  501.000;  578.000
873.517;  -38.500; -133.000; -209.000
873.764;  -41.000; -193.000;  -80.000
874.010;  -88.000; -143.000; -230.000
874.257;    7.300;  123.000;   90.000
874.503; -216.400; -579.000; -479.000
874.749;  -61.000;   31.000;  275.000
874.995;  -52.800;  -80.000;  -20.000
875.242; -173.000; -540.000; -478.000
875.488; -162.800; -414.000; -439.000
875.734;  -64.400; -106.000; -234.000
875.980; -100.800; -872.000;-1032.000
876.226;  119.100; -157.000; -255.000
876.472;   50.700;  343.000;  237.000
876.718;  -21.200;  184.000;  158.000
876.964;    1.500;   56.000;   55.000
877.210; -213.100; -547.000; -677.000
877.456; -228.000; -630.000; -557.000
877.702; -255.300; -821.000; -832.000
877.948; -175.200; -377.000; -497.000
878.193;   81.500;  361.000;  255.000
878.439; -186.500; -487.000; -472.000
878.685; -160.300; -272.000; -343.000
878.931; -190.900; -618.000; -676.000
879.176; -115.400; -201.000; -201.000
879.422; -304.900; -933.000; -820.000
879.668;   21.000;   10.000;   79.000
879.913;  113.700;   53.000;  137.000
880.159;  -73.800; -112.000;  -17.000
880.404;  -82.400; -152.000; -162.000
880.650;   24.600;   91.000;  141.000
880.895; -249.900; -670.000; -710.000
881.141; -185.000; -454.000; -428.000
881.386; -238.900; -503.000; -658.000
881.631; -153.700; -311.000; -166.000
881.877;   -0.400;  112.000;  -13.000
882.122; -175.800; -684.000; -600.000
882.367; -144.500; -136.000; -186.000
882.612;  -92.000;  -80.000; -176.000
882.858; -257.100; -877.000; -823.000
883.103; -150.600; -297.000; -267.000
883.348; -237.600; -759.000; -852.000
883.593; -234.300; -677.000; -602.000
883.838;  -99.900; -311.000;  -24.000
884.083;   47.700;  353.000;  288.000
884.328; -119.300; -564.000; -545.000
884.573;  -78.300; -196.000; -143.000
884.818;   -6.100; -694.000; -531.000
885.063;  -23.500; -348.000; -315.000
885.308; -176.200; -475.000; -398.000
885.553;   27.100;  245.000;  325.000
885.797; -187.300; -545.000; -615.000
886.042;  -46.500;    8.000;   58.000
886.287;  -91.400; -253.000; -211.000
886.532;  -22.000;   26.000;  204.000
886.776; -129.200; -407.000; -525.000
887.021; -221.400; -621.000; -574.000
887.265; -229.500; -685.000; -689.000
887.510; -217.500; -557.000; -496.000
887.755; -101.700; -194.000; -164.000
887.999; -196.600; -552.000; -575.000
888.244;  -72.000;  -58.000;  161.000
888.488;   72.300;  371.000;  393.000
888.732; -185.900; -368.000; -520.000
888.977; -187.200; -622.000; -567.000
889.221; -257.000; -683.000; -659.000
889.465; -216.700; -422.000; -566.000
889.710; -101.500;  -56.000; -299.000
889.954;   69.800;  579.000;  467.000
890.198; -205.100; -584.000; -707.000
890.442; -234.200; -716.000; -712.000
890.687; -282.000; -800.000; -753.000
890.931; -131.800; -273.000; -210.000
891.175; -202.100; -502.000; -500.000
891.419;  -97.700; -105.000; -110.000
891.663; -117.000; -239.000; -112.000
891.907; -272.900; -801.000; -545.000
892.151; -286.600; -920.000; -815.000
892.395; -152.600; -274.000; -387.000
892.638;   25.000;  408.000;  291.000
892.882; -298.300; -780.000; -867.000
893.126;   86.400;  758.000;  558.000
893.370; -106.900; -167.000; -168.000
893.614; -227.400; -714.000; -715.000
893.857; -153.600; -183.000; -197.000
894.101; -198.400; -527.000; -631.000
894.345;  -42.600;  300.000;  150.000
894.588;   83.400;  569.000;  380.000
894.832; -105.400; -178.000;  -84.000
895.075;  -75.000;   15.000;  -92.000
895.319; -211.000; -552.000; -420.000
895.563; -195.500; -413.000; -353.000
895.806; -243.100; -628.000; -741.000
896.049; -142.300; -576.000; -368.000
896.293;  130.300;  527.000;  405.000
896.536; -172.000; -465.000; -468.000
896.779;  -81.300; -149.000;   -1.000
897.023; -217.900; -751.000; -714.000
897.266;    9.200;  325.000;  269.000
897.509; -284.600; -900.000; -901.000
897.752;  -24.200;  149.000;  171.000
897.996; -307.600; -972.000; -864.000
898.239;    6.900;  168.000;  102.000
898.482; -187.300; -431.000; -453.000
898.725;  -11.900;  101.000;   53.000
898.968; -276.600; -609.000; -744.000
899.211; -194.000; -513.000; -361.000
899.454; -232.200; -633.000; -539.000
899.697;  -82.200;   90.000;  -43.000
899.940; -274.500; -761.000; -757.000
900.182; -130.000; -335.000; -405.000
900.425; -120.300; -150.000; -298.000
900.668;    6.800;  491.000;  350.000
900.911; -114.200; -292.000; -345.000
901.154;  -65.500;  141.000;   -3.000
901.396; -195.000; -407.000; -412.000
901.639; -205.800; -430.000; -496.000
901.882; -312.200; -790.000; -809.000
902.124; -115.600;  -29.000; -143.000
902.367; -148.300; -315.000; -361.000
902.609; -217.200; -476.000; -453.000
902.852;  -97.600; -108.000; -260.000
903.094; -189.900; -458.000; -337.000
903.337;  -30.700;  -26.000;   53.000
903.579; -137.700; -228.000; -441.000
903.821; -227.600; -597.000; -744.000
904.064;  -68.500;   85.000;  127.000
904.306; -100.200; -126.000; -166.000
904.548; -144.100; -152.000; -366.000
904.790; -153.200; -195.000; -340.000
905.033; -217.000; -625.000; -577.000
905.275; -194.800; -513.000; -524.000
905.517;   35.600;  468.000;  256.000
905.759; -211.800; -667.000; -761.000
906.001; -164.500; -322.000; -369.000
906.243; -133.500; -162.000; -224.000
906.485;   35.200; -265.000; -207.000
906.727;  -82.500; -499.000; -542.000
906.969;  -62.600;  -30.000; -135.000
907.211;  -24.600; -316.000; -382.000
907.453;  104.600; -188.000; -237.000
907.695;  -86.800; -158.000; -385.000
907.936;  144.200;  818.000;  706.000
908.178;  -41.700;   92.000; -135.000
908.420;  -87.000; -111.000; -162.000
908.662; -216.800; -633.000; -682.000
908.903; -117.300; -208.000; -123.000
909.145;  -72.600; -240.000; -305.000
909.386;   69.800;  315.000;  280.000
909.628;  106.000;  363.000;  397.000
909.870;   21.500;   29.000;  264.000
910.111; -215.400; -809.000; -949.000
910.353;   46.400; -123.000; -161.000
910.594;  -42.600; -574.000; -606.000
910.835;   63.600; -265.000; -326.000
911.077;   85.100; -503.000; -604.000
911.318;  283.300; -505.000; -471.000
911.559;  437.200; -577.000; -880.000
911.801; 1627.000; -284.000; -280.000
912.042;14286.500;  -50.000; -159.000
912.283;32484.300;  404.000;  371.000
912.524; 4133.500; -396.000; -457.000
912.765;  613.500; -193.000;   79.000
913.006;  272.500; -307.000; -338.000
913.247;   38.800; -270.000; -290.000
913.488;    8.600;  -43.000;   30.000
913.729; -147.800; -373.000; -373.000
913.970;  -72.900;  -96.000; -292.000
914.211;  -47.000; -160.000; -198.000
914.452;  -65.100; -118.000;  -11.000
914.693;   55.400;  510.000;  592.000
914.934;   73.600;  510.000;  440.000
915.175;  -81.100;   53.000;  -95.000
915.415;  -71.100; -137.000;   27.000
915.656;  -59.800;  -28.000;  192.000
915.897; -136.400; -252.000;  -82.000
916.137;  -94.000;   74.000;   -9.000
916.378; -228.000; -573.000; -517.000
916.619; -129.100; -159.000;  -63.000
916.859;   26.100;  303.000;  330.000
917.100;  341.700; 1655.000; 1070.000
917.340;  140.100;  930.000;  728.000
917.581;  114.100;  965.000;  789.000
917.821;  -90.400; -171.000;  143.000
918.061;  -96.800; -199.000;  -72.000
918.302;  -99.100; -152.000; -211.000
918.542;  -67.700;  -22.000;    3.000
918.782;   58.400;  369.000;  377.000
919.023;   97.700;  360.000;  427.000
919.263; 1777.400; 8131.000;  202.000
919.503;  557.000; -137.000;  -54.000
919.743;  406.800;  390.000;  266.000
919.983;  106.900; -134.000;  -26.000
920.223;   18.300;  135.000;   14.000
920.463;  143.200;  631.000;  554.000
920.703;   66.600;   84.000;   39.000
920.943;   52.400; -110.000;   90.000
921.183;   64.000; -414.000; -405.000
921.423;  383.300;  307.000;  546.000
921.663;  438.500; -174.000; -257.000
921.903; 1136.100;  237.000;  173.000
922.143; 6594.000;  372.000;  389.000
922.383;23984.700;  158.000;  115.000
922.622; 6759.100; -120.000;  -15.000
922.862;  904.200;  796.000;  785.000
923.102;  284.800;  -51.000;   33.000
923.341;  102.900;   59.000;   74.000
923.581;   81.300;  450.000;  360.000
923.821;   25.900;  301.000;  398.000
924.060;   29.100;  351.000;  193.000
924.300;  -77.000;  -16.000; -128.000
924.539;   52.800;  584.000;  473.000
924.779;   82.600;  812.000;  597.000
925.018;  -44.600;  247.000;  353.000
925.257;   52.700;  595.000;  666.000
925.497;  -37.000;  447.000;  412.000
925.736;  -72.800;  -35.000;  102.000
925.975;   29.600;  687.000;  669.000
926.214;  138.700;  907.000;  850.000
926.454;  119.700;  706.000;  757.000
926.693;  -20.100;  419.000;  543.000
926.932;  163.000; 1021.000;  825.000
927.171;  224.100; 1107.000; 1044.000
927.410;  204.800; 1144.000;  967.000
927.649;  120.000;  924.000;  742.000
927.888;   85.500;  590.000;  564.000
928.127;   70.000;  680.000;  678.000
928.366;  131.400;  842.000;  826.000
928.605;  134.600;  831.000;  737.000
928.844;  322.800; 1451.000; 1393.000
929.083;  456.700;  770.000;  613.000
929.321;  358.700; 1335.000; 1359.000
929.560;  204.900; 1158.000; 1122.000
929.799;   13.800;  574.000;  475.000
930.038;  202.100; 1025.000; 1394.000
930.276;  -14.100;  334.000;  397.000
930.515;   97.500;  827.000;  681.000
930.753;   71.300;  614.000;  589.000
930.992;   39.600;  664.000;  717.000
931.230;  111.600;  847.000;  847.000
931.469;  441.900; 2162.000;  892.000
931.707;  230.000;  840.000;  751.000
931.946;  232.300; 1278.000; 1344.000
932.184;  189.600; 1437.000; 1175.000
932.423;  184.200; 1265.000;  963.000
932.661;  228.400; 1296.000; 1428.000
932.899;  115.800;  987.000;  821.000
933.137;   93.100;  754.000;  564.000
933.376;  308.200; 1664.000; 1335.000
933.614;  314.900; 1759.000; 1196.000
933.852;  115.900; 1357.000; 1171.000
934.090;  312.500; 1722.000; 1747.000
934.328;  254.300; 1252.000; 1457.000
934.566;  209.200; 1431.000; 1110.000
934.804;  221.900; 1263.000; 1309.000
935.042;  525.800; 1861.000; 1850.000
935.280; 1516.800; 2088.000; 2063.000
935.518; 1314.500; 2113.000; 2007.000
935.756;  547.900; 2481.000; 2316.000
935.994;  316.300; 1808.000; 1751.000
936.231;  637.700; 2890.000; 2950.000
936.469;  418.800; 2367.000; 2378.000
936.707;  388.600; 2220.000; 2167.000
936.945;  548.100; 2825.000; 2882.000
937.182;  486.900; 2679.000; 2741.000
937.420;  720.800; 3602.000; 3031.000
937.657;  782.200; 3365.000; 3478.000
937.895;  691.200; 3331.000; 3488.000
938.133;  734.800; 3540.000; 3528.000
938.370;  792.200; 3896.000; 4191.000
938.607;  866.400; 4488.000; 4205.000
938.845; 1158.000; 5587.000; 5549.000
939.082; 1091.400; 5387.000; 5177.000
939.320; 1159.400; 5799.000; 5728.000
939.557; 1361.600; 6549.000; 6491.000
939.794; 1494.000; 7285.000; 7097.000
940.031; 1817.400; 8421.000; 8368.000
940.269; 2126.000; 9552.000; 9107.000
940.506; 2240.800;10901.000;10507.000

