
Integration time [ms]: 100.000
Averaging Nr. [scans]: 40
Smoothing Nr. [pixels]: 0
Data measured with spectrometer [name]: 2101013U2
Wave   ;Sample   ;Dark     ;Reference
[nm]   ;[counts] ;[counts] ;[counts] 

394.013;   64.507; -450.257; -315.536
394.305;  220.180; -461.258; -419.536
394.596;  986.306; -676.269; -527.514
394.887; 2339.772; -796.268; -654.518
395.178;  928.577;  145.736;   11.476
395.470;   90.887; -210.263; -356.526
395.761;  236.212;  305.734;  394.479
396.052;  334.311; -545.284; -306.489
396.343;  359.803; -557.276; -454.503
396.634;  137.473; -200.279; -290.497
396.926;  168.670; -618.268; -565.517
397.217;  160.707;   11.725;  -17.504
397.508;   72.948; -366.273; -154.507
397.799;   64.173; -555.279; -571.497
398.090;    9.243; -973.280; -902.495
398.381;  150.539;   11.708;  -11.473
398.672;   19.315; -585.292; -742.473
398.963;   60.979; -348.279; -373.498
399.254;  147.274;   54.709; -209.475
399.545;  -16.292;-1017.266; -883.520
399.836;   90.618; -407.277; -343.501
400.127;   56.441; -205.295; -209.468
400.418;   76.892; -423.274; -392.506
400.709;   95.280; -359.281; -333.493
401.000;   87.752; -268.291; -309.476
401.290;  115.005;  225.698;  115.545
401.581;  108.369; -166.286; -228.485
401.872;   41.714; -542.298; -486.462
402.163;   70.559; -313.296; -252.467
402.454;   99.149; -123.291; -163.475
402.744;  116.350; -844.297; -813.465
403.035;  534.455; -226.293;  -86.471
403.326;  722.743; -366.292; -384.474
403.617;  448.584;  204.701;  165.539
403.907;  254.716; -593.283; -679.490
404.198; 2103.111; -545.307; -599.446
404.489; 5582.471; -618.283; -588.491
404.779; 2030.758; -618.302; -660.456
405.070;  228.363;  -67.304; -174.451
405.360;  321.907; -259.293; -238.472
405.651;  367.619;  125.699;   98.542
405.942;  229.415;  209.714;  127.516
406.232;  379.704; -432.285; -413.487
406.523;  586.575;  641.706;  758.530
406.813;  135.667; -579.286; -644.484
407.104;  418.488;  261.708;  144.527
407.394;  264.485; -604.299; -591.462
407.685;  170.553;  336.715;  222.513
407.975;   74.470; -400.283; -382.490
408.265;  119.588; -134.289; -190.478
408.556;   86.621; -472.291; -459.475
408.846;  180.401;  474.706;  429.530
409.137;   80.371;   -1.288; -216.480
409.427;   69.729; -193.285; -271.487
409.717;   50.976; -776.273; -692.508
410.007;  157.347;    4.715; -170.486
410.298;  110.369; -360.295; -342.469
410.588;   86.551; -495.285; -510.486
410.878;   33.957; -792.287; -873.482
411.168;  117.442; -481.298; -478.463
411.459;  133.865; -295.283; -242.489
411.749;   70.320; -609.292; -507.474
412.039;   69.045; -755.289; -386.480
412.329;  221.711;   40.722;  132.501
412.619;  213.942;  -62.286; -148.485
412.909;  396.866;  639.711;  594.521
413.199;  389.868; -130.280; -251.495
413.490;  457.107;  521.710;  352.523
413.780;  147.072;-1013.279; -913.496
414.070;  335.654;  -46.276;  235.497
414.360;  408.182; -729.278; -666.498
414.650;  432.003; -726.288; -688.482
414.940;  524.096; -538.280; -441.496
415.230;  885.850;   50.712;   74.519
415.520; 5556.531;  155.730;   66.486
415.809;21647.330; -305.281; -125.493
416.099;16818.445; -388.277; -229.501
416.389; 4483.040;  435.726;  236.494
416.679; 2633.641;   91.738;   85.473
416.969;  491.411; -527.287; -503.483
417.259;  556.448;  341.721;  171.503
417.549;  667.679;  522.718;  318.508
417.838; 1466.122; -205.268; -147.518
418.128; 4744.012;  650.710;  492.522
418.418; 3997.257; -491.272; -579.509
418.708; 2697.090;    9.726;  -48.506
418.997; 9947.536; -474.275; -480.505
419.287;10370.122; -733.273; -790.507
419.577; 9567.264; -160.283; -123.489
419.866;32000.268; -588.277; -498.501
420.156;33724.027; -242.270;  -55.513
420.446; 6330.684; -112.263;  -26.526
420.735;  969.121; -376.271; -446.512
421.025;  866.156; 1830.722;  315.502
421.314;  821.769; -203.271; -226.512
421.604; 1940.790;   89.732;  233.484
421.893; 1129.466; -705.271; -602.511
422.183;  245.484; -487.263; -461.526
422.472;  377.642;  -36.271; -107.511
422.762;  464.764; -416.266; -379.521
423.051;  270.405; -916.276; -916.503
423.341;  332.499; -491.273; -439.507
423.630;  441.945; -121.265;   15.477
423.919;  396.386;   58.725;   49.495
424.209;  350.864;  -31.263;   56.473
424.498;  473.094;   68.732;  161.483
424.787;  982.976; -535.267; -601.518
425.077; 3120.543;   34.735;   29.478
425.366; 4817.470; -734.262; -744.528
425.655; 8718.674;  639.727;  259.493
425.945;17013.894; -313.247; -268.554
426.234; 9634.416;  117.741;  300.467
426.523; 4580.571;  -86.259; -350.534
426.812; 6273.210;  107.734;  159.480
427.101; 8943.311; -127.269; -323.515
427.390;11664.230;  -55.270;  -86.514
427.680; 3169.565; -624.257; -411.538
427.969;  536.951; -330.255; -301.540
428.258;  351.507; -385.257; -477.536
428.547;  591.811;  449.728;  397.490
428.836; 1495.416; -421.253; -398.543
429.125; 2190.923; -199.259;  -72.534
429.414;  911.488; -330.251; -294.548
429.703; 2794.363; -231.251; -213.548
429.992; 8208.641; -938.250; -828.549
430.281; 5401.002; -397.264; -331.524
430.570;  637.029;  -21.252;   32.454
430.859;  665.196;  279.741;  352.466
431.148;  528.465;  636.752;  631.446
431.437;  343.978;  391.748;  367.454
431.725;  161.134; -544.257; -481.536
432.014;  126.973; -845.253; -756.545
432.303;  416.212; -149.239; -105.569
432.592;  694.358; -460.263; -178.525
432.881; 1000.366; -601.248; -437.554
433.169; 5240.576; -343.255;  -61.540
433.458;10787.770;  445.765;  540.424
433.747; 4659.800; -397.261; -289.529
434.036; 1053.564; -275.242; -280.564
434.324; 1944.128; -395.249; -379.551
434.613; 3310.908;   40.757;  159.437
434.902; 1225.303;  333.760;  439.433
435.190;  840.661;   75.761;  295.431
435.479;  464.965;  -52.245;   83.441
435.767;  148.573; -411.244; -427.561
436.056;  261.585; -340.242; -294.563
436.345;  366.605; -372.240; -223.568
436.633;  414.874;   60.750;  383.450
436.922;  358.932;  208.760;  414.432
437.210;  888.785; -194.236;    1.426
437.499; 2953.368; -583.235; -432.576
437.787; 3222.560; -339.236;  -10.574
438.075;  753.141;   56.761;  162.430
438.364; 1005.444;  -44.238;  250.429
438.652;  631.344; -286.226; -138.592
438.941;  178.435;    3.770;  269.415
439.229;   39.501; -665.252; -466.545
439.517;   60.926; -160.234;  -85.577
439.806;   16.810; -501.225; -290.595
440.094;  222.883;  377.766;  650.421
440.382;  262.787; -653.233; -302.580
440.670;  281.692; -361.235; -285.576
440.959;   49.301; -347.223; -170.599
441.247;   98.796; -151.229; -109.587
441.535;  136.699; -266.235;   31.423
441.823;   59.556; -497.234; -305.578
442.111;  217.150;  173.771;  327.412
442.400;  702.740; -628.245; -335.559
442.688; 1996.708; -111.234; -620.579
442.976; 1518.661; -786.213; -450.617
443.264;  157.816; -324.224; -364.597
443.552;  125.745; -258.226;   51.408
443.840;  198.823;  602.765;  876.423
444.128;  124.836;  265.767;  269.420
444.416;   23.577; -694.228; -312.588
444.704;   34.655; -465.219;  -92.605
444.992;   96.373;   -0.226;  240.407
445.280;   74.886; -517.230;  -94.585
445.568;   64.164; -694.212; -396.618
445.856;  466.589; -174.221;  357.398
446.143; 1046.101;  -54.220;   -7.604
446.431;  840.706;  -25.228;  625.411
446.719;  299.398;  489.783;  675.391
447.007;  194.130;  481.769;  705.416
447.295;  200.423;  597.777;  871.402
447.583;   78.244; -464.229;  -34.587
447.870;  189.111; -434.221; -202.601
448.158;  506.109; -104.230;  129.415
448.446;  411.077; -800.219; -338.604
448.733;  201.342;   13.776;  269.403
449.021;  287.939;   60.788;  341.382
449.309;  201.853; -296.210;  208.379
449.596;  227.745;  128.783;   59.392
449.884;  160.455; -571.222; -325.600
450.172;  127.511; -756.227; -406.590
450.459;  386.094;  645.786;  780.387
450.747; 1948.243; -411.218; -147.608
451.034; 6209.182;  493.772;  889.411
451.322; 5177.597; -413.214; -170.614
451.609;  470.594;  292.777;  508.403
451.897;  520.113; -550.203; -183.634
452.184; 1524.349; -622.223; -400.598
452.472; 1482.098;   97.792;  269.375
452.759;  361.728;  512.781;  864.395
453.047;  148.111; -407.212; -125.617
453.334;   97.785; -732.219; -216.606
453.621;  130.150; -438.214; -161.615
453.909;  135.581;   13.796;  384.368
454.196;  150.099; -299.199; -123.641
454.483;  242.601;  317.798;  540.364
454.771;  155.076; -215.208;  196.374
455.058;   41.055; -316.207;  102.374
455.345;  110.427;   71.807;  344.347
455.632;   68.558; -128.207;  235.373
455.919;   53.221;  -82.196;  182.354
456.207;  -65.121; -774.198; -450.642
456.494;   -3.862; -475.200;  -66.639
456.781;   25.572; -399.202; -198.635
457.068;   80.889; -253.206;  -29.628
457.355;   10.190; -698.206; -401.629
457.642;   12.995; -552.205; -290.630
457.929;   18.369; -778.194; -417.651
458.216;   69.612; -575.212; -354.617
458.503;  200.648; -173.193;  -19.652
458.790;  191.149; -864.208; -630.625
459.077;  246.201;  -77.202;  110.364
459.364;  709.012; -350.195; -210.649
459.651; 1461.987;  -46.206;  220.372
459.938;  685.340; -864.209; -665.623
460.225;  192.555;  132.799;  276.363
460.512;  -19.482; -836.197; -688.645
460.799;  130.617;  -32.218;  320.392
461.086;  108.117; -370.200; -251.640
461.372;   58.504; -509.198; -279.642
461.659;  157.472; -165.196;  108.354
461.946;   77.097; -445.193;  -54.651
462.233;  257.415;  842.800;  888.361
462.519;  328.662; -814.201; -464.639
462.806;  901.494; -768.197; -497.645
463.093;  767.242; -445.191;  -66.656
463.380;  -16.469; -920.186; -824.664
463.666;   70.245; -259.197;  -18.646
463.953;  123.332; -406.195; -243.648
464.239;  180.632; -173.195;  -77.648
464.526;  406.467;  413.806;  743.350
464.813;  372.553; -565.190; -304.658
465.099;  414.048;  606.807;  607.348
465.386;  376.427;  903.807;  921.348
465.672;   62.944; -694.197; -522.645
465.959;   40.245; -598.188; -520.662
466.245;   24.302; -468.193; -359.652
466.532;  120.355; -109.195;   63.352
466.818;  116.006; -357.186; -216.664
467.104;   21.070; -488.182; -415.672
467.391;   -2.070; -628.189; -459.658
467.677;   46.184; -289.186;    9.335
467.964;   30.111; -682.189; -471.660
468.250;   86.862; -331.186; -160.665
468.536;   97.956;   90.811;  180.341
468.822;  -30.927; -821.184; -574.668
469.109;  154.097;  351.827;  471.311
469.395;  214.736;  729.808;  787.346
469.681;  190.384;   46.811;  156.341
469.967; 1073.963; -699.188; -382.660
470.254; 2311.871; -494.188; -306.662
470.540; 1494.921; -601.196; -476.646
470.826;  219.205; -488.181; -397.675
471.112;  267.727;  288.816;  113.331
471.398;   98.131; -253.183;  -58.670
471.684;   53.507; -626.177; -447.680
471.970;   19.509; -918.180; -981.675
472.256;   35.685; -521.192; -441.654
472.542;   46.807; -499.171; -434.691
472.828;   26.266; -743.182; -607.672
473.114;   52.724; -380.166; -283.700
473.400;   37.398; -504.175; -293.684
473.686;   60.455; -452.166; -400.701
473.972;   63.362; -230.174; -131.687
474.258;  -40.378; -925.173; -843.689
474.544;  152.849; -183.178;   -2.679
474.830;  248.200;  -65.175;   45.316
475.116;  358.529; -123.190; -196.658
475.401;  489.336; -558.180; -467.676
475.687;  167.185; -725.180; -718.676
475.973;   22.748; -673.181; -770.673
476.259;  284.027;  736.825;  764.315
476.544;  346.140; -539.176; -437.682
476.830;  660.704; -398.172; -322.690
477.116;  548.414; -430.177; -336.682
477.401;  137.111;  346.820;  358.324
477.687;  -13.402; -289.175; -405.684
477.973;   41.002;   21.819;   28.326
478.258;    8.350; -448.163; -348.706
478.544;   53.817;   21.815;   61.334
478.829;  -43.812; -818.171; -738.692
479.115;  -32.722; -749.172; -651.690
479.401;  -13.167; -444.174; -449.686
479.686;   33.059; -253.180;  -74.676
479.972;  -34.521; -886.178; -776.680
480.257;   39.201; -258.166;  -65.700
480.542;    0.342; -614.170; -469.693
480.828;  246.172; 1288.824; 1392.317
481.113;   -9.905; -464.176; -426.683
481.399;    1.898; -236.161; -202.711
481.684;  -43.725; -620.166; -462.700
481.969;   18.436; -158.159;  -73.713
482.255;   -5.848; -439.169; -285.695
482.540;    7.555; -569.178; -441.680
482.825;    4.826; -395.187; -404.663
483.110;   67.255;  -85.169; -105.696
483.396;  138.106; -840.157; -652.718
483.681;  384.187;  543.826;  730.313
483.966;  107.455; -696.160; -700.712
484.251;    7.361; -404.174; -310.687
484.536;    7.885; -356.165; -378.703
484.822;   16.989; -205.173; -218.687
485.107;  -28.257; -599.152; -502.726
485.392;  118.666;  662.836;  541.296
485.677;   89.489;  354.832;  163.302
485.962;  111.329;  160.843;  270.283
486.247;  103.158;  -14.162;   -8.707
486.532;   54.002; -178.166; -325.701
486.817;  168.467;  381.839;  431.291
487.102;  121.677; -453.154; -514.722
487.387;  532.933; -637.156; -652.718
487.672;  902.646; -154.164;  -38.705
487.957;  581.999; -394.160; -286.711
488.241;  177.384; -290.150; -314.729
488.526;  572.269; -280.152; -148.726
488.811;  921.131; -881.177; -818.680
489.096;  712.354; -666.154; -702.723
489.381;  419.716;    3.847;  162.275
489.666;  294.797; -428.161; -510.710
489.950;  170.607;  558.846;  627.277
490.235;  -31.971; -480.151; -458.728
490.520;  -39.353; -756.161; -723.710
490.804;  -48.615; -827.156; -736.719
491.089;   -1.551; -469.149; -299.732
491.374;   53.544; -132.164;  -75.704
491.658;  -14.415; -817.147; -717.735
491.943;  193.598; -657.152; -609.727
492.227;  289.623; -178.155;  -38.721
492.512;   67.129; -294.157; -341.717
492.797;  -67.357; -713.149; -716.731
493.081;  -48.687; -588.147; -598.735
493.366;  -27.602; -751.161; -635.711
493.650;  219.589;  831.859;  917.254
493.935;   20.909; -648.147; -447.734
494.219;  -46.799; -778.142; -687.743
494.503;  -51.712; -585.150; -487.730
494.788;   55.071;   46.842;   74.285
495.072;   93.410;  184.850;  434.271
495.356;  140.027; -463.148; -343.733
495.641;  434.369; -812.146; -736.736
495.925;  417.940; -976.156; -903.719
496.209;   58.599; -599.149; -451.732
496.494;  -37.023; -763.142; -544.744
496.778;   20.102; -364.154; -360.722
497.062;  -61.736; -819.156; -627.719
497.346;  -47.999; -869.160; -640.711
497.631;  145.556;  580.852;  560.266
497.915;   66.054;  -64.145;  175.261
498.199;   69.331; -341.157; -277.718
498.483;   46.668; -562.152; -508.725
498.767;  170.886;  301.850;  300.271
499.051;  155.721; -126.149; -100.732
499.335;   35.245; -693.149; -739.731
499.619;  -29.589; -381.129; -423.767
499.903;   36.746; -272.155;  -65.721
500.187;   37.159; -588.153; -316.724
500.471;   34.898; -796.152; -595.727
500.755;  112.122;   62.839;  -96.710
501.039;   37.122; -270.155; -357.721
501.323;  100.490;  -21.141;  264.254
501.607;   56.125; -447.163; -503.706
501.891;    8.083; -607.156; -512.718
502.174;  -25.910; -726.144; -585.741
502.458;   57.701;   89.849;  370.273
502.742;   59.338; -180.138; -191.751
503.026;   87.209; -412.147; -254.734
503.310;  120.210; -437.159; -375.713
503.593;   98.636; -464.147; -325.735
503.877;  115.302; -232.133; -156.760
504.161;  184.011;    2.847;  -50.724
504.444;  140.498; -841.158; -710.716
504.728;  353.419; -487.164; -522.704
505.012;  586.533; -257.150;  -76.729
505.295;  449.923; -417.161; -212.711
505.579;  445.014; -256.156; -496.719
505.862;  575.926; -555.145; -333.738
506.146;  567.662; -681.159; -758.714
506.429;  341.862;  568.841;  461.286
506.713;   40.231; -732.151; -667.728
506.996;  267.076;   90.846;  295.278
507.280;  271.664; -633.165; -474.703
507.563;  172.345; -469.155; -261.721
507.847;   70.309; -423.153; -112.724
508.130;   62.774; -665.161; -456.711
508.413;   89.696; -758.167; -577.700
508.697;  200.472; -151.167;   12.300
508.980;  111.686; -422.153; -312.724
509.263;   -1.508; -466.155; -450.720
509.547;   32.083; -124.150;   82.271
509.830;   37.776; -172.160;  140.289
510.113;   79.839;  128.844;  298.281
510.396;   35.716; -530.152; -300.725
510.680;  270.102; -818.145; -812.738
510.963;  932.831;  184.846;  180.277
511.246;  841.665; -493.150; -357.730
511.529;  297.232; -482.145;  -83.739
511.812;  300.724; -250.134;   10.241
512.095;  177.628; -740.151; -396.728
512.378;   64.615; -317.147; -245.736
512.661;   13.371; -703.137; -623.753
512.944;   13.028; -750.142; -637.744
513.227;   48.068; -170.137; -171.752
513.510;   25.815; -479.144; -671.741
513.793;   18.119; -485.140; -435.747
514.076;  143.731;  -43.127;  -39.771
514.359;  101.324; -294.149; -135.732
514.642;   65.581; -442.142; -567.744
514.925;  608.393;  581.860;  561.253
515.208;  756.145; -498.134; -443.758
515.491;  514.483; -276.133; -182.761
515.773;  289.043; -410.143; -337.742
516.056; 1656.752;  249.864;  409.246
516.339; 2303.330; -754.136; -652.755
516.622; 2001.038; -518.150; -488.730
516.904; 1685.475;  882.857;  975.257
517.187;  768.717; -730.138; -523.752
517.470;  393.249; -568.143; -510.743
517.752;  344.383; -624.136; -470.756
518.035;  256.330; -708.139; -725.749
518.318;  270.931; -799.136; -744.755
518.600; 1802.662; -300.132; -325.762
518.883; 2533.631;  310.858;   88.256
519.165; 1255.185; -585.138; -426.751
519.448;  401.761;  -61.132;  -19.762
519.730;  220.863; -573.126; -415.773
520.013;  361.255;  588.867;  664.240
520.295; 1127.525;  -94.134;  -15.759
520.578; 2545.749; -335.131; -305.764
520.860; 2827.187; -254.132;   56.238
521.143; 1388.535; -763.135; -584.756
521.425;  463.725; -251.125; -279.775
521.707;  571.956; -622.127; -380.771
521.990; 1429.181; -199.127;  167.229
522.272; 1604.796; -116.140;   -4.748
522.554;  857.944; -237.143; -157.742
522.836;  417.473;  -24.134;   99.241
523.119;  246.508; -496.148; -189.734
523.401;  157.106; -448.130; -314.766
523.683;   68.421; -865.137; -693.753
523.965;  224.290;  408.862;  260.248
524.247;  231.821;   54.878;  170.220
524.529;  159.500; -451.134; -367.759
524.812;  335.032;   -3.130;  191.234
525.094;  650.114; -773.138; -631.751
525.376; 1063.609; -143.124;   78.223
525.658;  632.103; -441.136; -339.754
525.940;   18.021; -805.131; -671.764
526.222;   45.631; -188.136;  -88.755
526.504;  148.394; -190.131;   32.237
526.786;  269.703; -960.133; -647.760
527.068;  433.064; -124.123;  -67.778
527.349;  177.825; -865.137; -774.754
527.631;  132.186; -137.132;   22.238
527.913;  100.355; -664.127; -450.771
528.195;  114.793; -761.125; -639.774
528.477;  187.920;  -93.134;  -30.758
528.759;   95.607; -648.130; -522.766
529.040;   32.463; -569.123; -293.778
529.322;   36.246; -235.125;  -10.774
529.604;  149.909;  -47.130;   93.233
529.886;  165.388; -546.126; -302.773
530.167;  144.401;  232.870;  192.235
530.449;   62.389;    1.853;   63.265
530.731;   -7.080; -572.122; -459.779
531.012;   36.340; -513.120; -216.784
531.294;   43.352; -118.116;  -43.792
531.575;  121.750;  290.875;  538.225
531.857;   33.290; -548.135; -266.757
532.138;   97.839; -113.141;   40.254
532.420;  184.687;  294.865;  403.244
532.701;  266.605; -722.133; -751.760
532.983;  396.183;  232.867;  182.239
533.264;  164.886; -243.126;  175.228
533.546;  -31.219; -491.136; -508.755
533.827;   58.776;  173.867;   -1.759
534.109;   71.790; -352.135;  -80.757
534.390;  112.240; -725.132; -582.762
534.671;  246.062; -270.135;  -82.756
534.953;  135.516; -751.123; -611.779
535.234;    7.713; -426.117; -255.789
535.515;  -89.077; -891.119; -735.785
535.796;  -21.974; -431.128; -193.770
536.078; -119.466;-1050.124; -904.777
536.359;   -2.634;  -22.123;    3.221
536.640;   -7.105; -480.125; -197.774
536.921;  155.514;  225.871;  143.232
537.202;  299.861;  -87.138;  -16.751
537.483;  365.448;  251.869;  377.236
537.764;  152.826;   17.870;   98.235
538.045;  -34.756; -543.134; -371.758
538.326;  -29.009; -596.129; -447.768
538.607;   13.007; -686.127; -476.771
538.888;  130.706;   98.879;    5.218
539.169;  133.751; -704.122; -535.781
539.450;  304.113;  236.871;   16.233
539.731;  192.285; -361.121; -182.783
540.012;  144.715;  199.880;  412.216
540.293;   97.978;   82.876;  158.224
540.574;   24.347; -895.113; -717.796
540.855;  439.333;  435.879;  377.218
541.136;  527.423;   47.878;  139.220
541.416;  248.608; -161.130; -220.766
541.697;  154.644; -274.131; -170.763
541.978;  822.214; -270.135; -315.757
542.259; 1049.232; -211.127; -236.771
542.539;  504.796; -191.116; -186.790
542.820;  186.275;  461.875;  480.225
543.101;  134.103;  -52.145;  -77.738
543.381;   33.931; -638.127; -591.771
543.662;  245.129;  159.873; -254.771
543.942;  444.877; -751.127; -830.770
544.223;  848.975;  193.878;  161.219
544.504;  550.158; -275.124; -182.777
544.784;  466.737; -592.126; -408.773
545.065; 1353.550;  104.884; -254.791
545.345; 1630.998;  227.881;   14.215
545.626; 1031.246;  -14.113; -108.796
545.906;  662.926;   77.869;   98.235
546.186;  293.267;   92.874;  -95.773
546.467;  132.486;   99.877;  -95.778
546.747;  268.246;  264.884;  327.210
547.027;  312.432;   91.876;  111.223
547.308;  249.027; -376.127; -530.770
547.588;  350.267;  299.871;  371.232
547.868;  181.727;  458.870;  588.235
548.149;  172.182;  609.885;  593.207
548.429;  102.205; -347.127; -299.771
548.709;  128.114; -645.120; -461.784
548.989;  376.257;   84.882;   88.213
549.269; 1640.810;   10.868;  139.239
549.550; 3744.165;  215.877;  117.222
549.830; 3376.088; -758.111; -556.799
550.110;  686.721; -468.110; -320.801
550.390;  653.770; -128.122;  -56.779
550.670;  895.317; -868.114; -783.795
550.950;  610.633; -509.121; -471.782
551.230;  181.829;  549.879;  460.218
551.510;  -27.518; -381.121; -326.782
551.790;   13.603; -173.109; -127.803
552.070;  234.811;  940.877; 1181.223
552.350;  305.102; -492.119; -377.786
552.630;  430.002;   -2.121;   77.219
552.909;  255.250;  181.884;   73.209
553.189;  186.241;  -49.132;   33.237
553.469;  117.201; -703.119; -514.786
553.749;  134.608; -469.127; -357.772
554.029;  112.792;   33.883;  -24.790
554.308;   98.436; -154.115;  -37.794
554.588;   44.225; -196.128; -204.770
554.868;   35.584; -366.121;  -47.782
555.147;  126.858; -114.115;  -46.793
555.427;  445.227; -260.116; -250.792
555.707; 3006.281; -284.115; -200.793
555.986; 3610.242; -719.111; -538.800
556.266; 1930.770;   23.884;   72.210
556.546;   60.732; -888.121; -675.782
556.825;  168.165; -657.114; -556.794
557.105; 1380.873; -125.128;   17.230
557.384; 1630.099;  122.884;  187.209
557.664;  582.302; -717.116; -508.792
557.943;   76.133; -557.121; -411.782
558.222;  118.860; -345.118; -344.788
558.502;  219.209; -116.115;  -76.793
558.781;  381.580;  194.885;  499.208
559.061;  306.660; -232.118; -227.788
559.340;  230.714;  302.883;  353.211
559.619;  538.520;   93.884;  148.210
559.899;  760.216; -239.117; -266.789
560.178;  688.334; -778.115; -593.793
560.457; 2394.318; -623.117; -562.790
560.736; 3356.068; -472.111; -482.800
561.015; 2235.396; -500.128; -502.769
561.295;  323.047;  180.893;  215.193
561.574;  285.832;  119.885;  116.207
561.853;  413.107;  274.891;  303.197
562.132;  383.936;  -45.114;  182.206
562.411;  341.553;  396.879;  553.219
562.690;   87.930; -592.115; -458.792
562.969;  127.378;  472.888;  630.203
563.248;  493.975; 2966.878; 2487.219
563.527;  209.617; -290.111; -408.800
563.806;  261.880; -650.127; -521.771
564.085;  294.387; -297.105; -206.810
564.364;  165.144; -594.117; -405.790
564.643;  385.903; -276.121; -223.781
564.922; 1441.426;  221.890;  397.198
565.201; 1426.155; -640.109; -700.803
565.479;  602.654; -297.115; -219.792
565.758;  238.949; -810.128; -712.770
566.037;  373.381; -155.109; -100.803
566.316;  204.449; -286.116;  -28.791
566.595;   22.931;  -17.115;  -12.793
566.873;   85.844; -166.111;  -79.801
567.152;  -73.423; -490.113; -590.797
567.431;   -2.704; -113.116;    6.210
567.709;  -21.753; -344.107; -212.807
567.988;  165.465; -810.114; -769.794
568.266;  419.831; -160.115;  -68.793
568.545;  271.357; -644.100; -514.819
568.824;  437.403;  160.885;  356.208
569.102;  408.339; -351.114; -235.794
569.381;  137.602; -492.116; -407.792
569.659;  -53.876; -553.113; -553.796
569.938;   -4.951; -743.122; -465.780
570.216;   83.033; -225.109; -225.804
570.494;  -39.832; -632.114; -572.795
570.773;   42.682;  202.879;  114.218
571.051;   -5.311; -373.123; -357.778
571.330;   34.022; -221.113; -174.796
571.608;   19.874; -181.098; -173.823
571.886;  -81.188; -671.111; -581.799
572.164;  -80.391; -739.121; -621.782
572.443;  -61.110; -562.105; -512.811
572.721;  -42.507; -399.117; -289.790
572.999;  -26.588; -280.117; -168.788
573.277;   88.909;  379.894;  620.191
573.555;  219.761;   94.894;   37.190
573.834; 1000.336;  -86.117; -114.788
574.112; 1191.325;  880.893;  811.193
574.390;  350.543; -143.111;  -96.801
574.668;    0.879;  -91.112;  -61.797
574.946;  -21.439; -165.106; -187.810
575.224;   12.355;   71.891;  -16.803
575.502;  -27.853; -200.116; -204.791
575.780;  -81.970; -767.112; -829.798
576.058;  181.792; 1589.889; 1004.200
576.336;  -15.227; -210.110; -129.801
576.614;  -66.945; -511.112; -340.798
576.891;    6.436; -711.115; -823.794
577.169;  361.966; -158.108; -285.805
577.447;  457.624;  169.893;  202.193
577.725;  247.559;  629.888;  854.201
578.003;    6.457;  -71.112; -371.798
578.280;   79.124; -208.104; -242.812
578.558;   69.934; -450.115; -422.793
578.836;  120.867; -210.114; -145.795
579.114;   36.953; -630.112; -670.797
579.391;   67.588;   -6.117;  -18.789
579.669;  -66.814; -595.114; -704.794
579.947;  129.121; -326.107; -127.806
580.224;  224.646; -692.107; -524.806
580.502;  247.275;  127.893;   76.193
580.779;   12.294;  -42.117;   75.210
581.057;  -77.041; -584.109; -470.804
581.334; -106.987; -726.102; -695.815
581.612;   37.812;   54.895;  511.190
581.889;  -25.399;  -83.101; -129.818
582.167;  -44.236; -298.099; -190.821
582.444; -100.055; -845.102; -814.817
582.721;  102.171;  657.899;  715.183
582.999;   31.162; -326.100; -167.821
583.276;  369.643; -812.123; -713.779
583.553;  516.291; -364.102; -294.816
583.831;  143.271; -607.104; -631.812
584.108;   54.239;  349.892;  174.195
584.385;  -10.338; -122.102;  -98.815
584.662;  -81.106; -651.111; -828.801
584.940;   17.494;  204.889;  204.199
585.217;  -25.176;  -73.113; -303.796
585.494;   33.252;   71.890;  118.198
585.771;  163.484; -250.109; -354.804
586.048;  388.423; -196.113;  -76.796
586.325;  228.772; -721.110; -773.801
586.602;   80.349;  230.896;  213.188
586.879;  -31.967; -499.100; -580.820
587.156;   21.388; -156.105; -331.810
587.433;  -57.081; -701.102; -667.817
587.710;   54.980;  152.888;  234.202
587.987;  248.218; -264.105; -236.811
588.264;  669.882;  315.888;  387.202
588.541; 1127.651;  -61.104;   26.187
588.818; 2218.362;   72.892;  171.196
589.095; 1869.297; -163.104; -174.812
589.371;  309.607; -459.109; -414.804
589.648;    1.850; -581.107; -437.807
589.925;    3.043; -517.114; -621.795
590.202;  -11.745; -741.112; -607.798
590.478;   58.694; -166.105;  -73.811
590.755;  209.792; -241.108; -132.806
591.032; 1901.799; -741.110; -699.802
591.308; 2582.187; -732.094; -790.831
591.585; 1342.873; -573.110; -560.802
591.862;   71.545;-1056.102; -950.817
592.138;   48.790; -475.108; -474.805
592.415;  108.125; -486.104; -495.813
592.691; 1181.098;  460.896;  518.188
592.968; 1486.801; -208.098; -123.824
593.244;  692.446; -695.116; -595.790
593.521;   52.420; -105.102;  -42.817
593.797;  -41.479; -810.122; -720.780
594.074;  231.038; -611.096; -588.826
594.350;  540.498;  828.905;  729.172
594.626;  236.945; -303.111; -283.801
594.903;   59.871; -643.101; -645.817
595.179;  146.053;  243.896;  418.187
595.455;   -9.349; -136.107; -150.807
595.731;    7.380;  -19.103;  -38.814
596.008;  -49.461; -464.111; -434.800
596.284;   31.261; -187.100; -242.820
596.560;   19.793; -501.093; -493.833
596.836;  146.890; -173.105;  -70.810
597.112;  239.116; -582.108; -437.805
597.388;  220.711;  -49.097;  -48.826
597.665;   91.401;  437.887;  530.203
597.941;  -83.504; -572.089; -658.839
598.217;   -7.248; -323.110; -293.802
598.493;  192.461;   61.891; -204.804
598.769;  382.680; -175.100;  -50.819
599.045;  213.194; -490.108; -562.806
599.321;    8.085; -193.100; -261.820
599.597;   79.760; -355.109; -476.804
599.872;  379.351;  409.896;  429.187
600.148;  278.487;  -61.097; -172.826
600.424;  228.573;   91.893;  202.193
600.700;  176.700; -170.107; -280.807
600.976;   60.657; -442.097; -464.825
601.252;  162.432; -226.109; -272.803
601.527;  131.902; -833.104; -840.813
601.803;   95.620; -453.105; -404.812
602.079;  120.105; -124.100; -118.819
602.354;  428.703; -620.092; -531.835
602.630;  641.874; -140.113; -482.796
602.906; 1824.076; -910.101; -863.818
603.181; 5246.726; -627.119; -534.786
603.457; 4460.210;   98.903; -278.826
603.733;  625.961; -605.120; -626.783
604.008;  770.912; -245.106; -164.810
604.284; 2447.147; -636.101; -580.817
604.559; 2127.659;   -3.112;  -42.799
604.835;  374.789; -163.105; -225.810
605.110;  305.865; -732.099; -892.821
605.385;  544.171;  224.907;  267.167
605.661;  495.826; -625.095; -729.829
605.936;  847.919; -664.108; -737.806
606.211;  726.936;  -17.103; -170.815
606.487;  144.588; -329.114; -376.794
606.762;  -16.598; -791.119; -745.786
607.037;  -28.660; -501.105; -433.810
607.313;  -62.905; -589.096; -574.828
607.588;  -17.564; -375.106; -137.810
607.863;   13.100;  -28.101; -143.818
608.138;  148.626;  513.890;  516.198
608.413;   -4.606; -576.099; -592.822
608.688;    5.065; -203.108; -267.805
608.964;  125.406; -509.106; -218.809
609.239;  173.212; -107.105; -212.810
609.514;  199.645;  281.895;  240.188
609.789;  491.474; -187.104; -716.812
610.064;  674.243; -435.096; -609.827
610.339;  633.307; -855.109; -799.804
610.614;  874.760; -131.100; -315.820
610.889;  492.995;  215.895;  107.188
611.163;   -0.404; -407.104; -591.812
611.438;   46.790;   81.886; -167.794
611.713;  -13.628; -467.101; -499.817
611.988;   22.874; -144.101; -328.818
612.263;  -47.087; -771.102; -717.815
612.538;  156.873;  385.887;  251.204
612.812;   93.661; -832.100; -911.820
613.087;   59.298; -358.098; -338.823
613.362;  -56.374; -497.107; -557.807
613.637;   22.658;  261.897;  138.186
613.911;  -17.272; -256.092; -345.835
614.186;   56.899; -249.107; -292.807
614.460;  477.093; -842.081; -758.854
614.735;  589.194;  -55.087;  -17.843
615.010;  124.584;   43.912;  -82.841
615.284;  191.065;  360.892;  246.195
615.559;  269.552; -792.092; -955.835
615.833;  232.117;  -76.099;  -87.822
616.108;   -3.787; -225.090; -390.837
616.382;  124.120;  274.913;  402.156
616.656;  113.664; -241.090; -232.837
616.931;  382.592; -785.099; -700.822
617.205;  834.053; -973.104; -979.813
617.480;  738.298;  -91.125;    6.225
617.754;  122.671; -396.125; -128.774
618.028;  -15.782; -369.129; -382.768
618.302;   50.038;   73.892;  -25.805
618.577;  -68.916; -371.103; -518.815
618.851;  -59.621; -399.109; -600.803
619.125;  -57.125; -335.134; -378.759
619.399;  -45.147; -244.104; -374.813
619.673;  -53.997; -330.115; -515.792
619.947;  -55.408; -333.114; -448.795
620.222;  -41.105; -198.110; -204.801
620.496;  -16.692;  -47.121;  -96.782
620.770;    0.001; -187.122;  -93.781
621.044;  180.863;  323.895;  346.190
621.318;  580.186; -653.120; -614.783
621.592;  514.909; -430.121; -409.783
621.866;  231.185; -476.112; -572.799
622.140;    5.047; -207.116; -356.791
622.413;   35.239;  138.889;  112.200
622.687;  -61.103; -746.101; -492.817
622.961;    5.688; -130.108; -143.805
623.235;  -72.985; -633.111; -661.800
623.509; -127.606; -816.105; -848.811
623.783;    1.922;  -12.107;   48.193
624.056;  -40.638; -254.120; -280.783
624.330;   27.579;   63.888;   -3.797
624.604;   22.294; -271.116; -355.790
624.877;   52.250;  180.890;   26.198
625.151;   14.087; -249.114; -238.794
625.425;  -29.020; -150.103; -283.814
625.698;  -77.279; -367.119; -374.785
625.972; -101.848; -799.110; -765.802
626.245;   72.071;  685.884;  484.210
626.519;  -58.134; -426.120; -340.784
626.792;  -48.625; -192.107; -380.807
627.066;  -93.331; -485.122; -662.779
627.339; -112.452; -736.110; -663.802
627.613;   30.515;  351.880;  148.216
627.886;   33.554;  187.891; -612.803
628.160;  -15.564;  312.880; -161.783
628.433;  -95.599; -695.125; -703.775
628.706;  -94.959; -517.120; -615.784
628.979;   22.882;  296.876;  117.223
629.253; -110.899; -785.119; -833.786
629.526;  259.761; -334.126; -253.772
629.799;  233.914; -641.123; -479.778
630.072;   84.694; -497.128; -516.769
630.346;  -93.054;-1115.116;-1080.790
630.619;  324.201; -467.107; -545.808
630.892;  494.790;  709.889;  593.200
631.165;  275.703;  790.896;  679.187
631.438; -101.943;-1092.112;-1055.798
631.711;   40.217;  453.877;  257.221
631.984;  -72.934; -523.117; -624.789
632.257;  -84.287; -636.117; -681.789
632.530;  -66.379; -412.119; -433.785
632.803;   17.935; -109.115;    7.207
633.076;  -94.364; -360.123; -422.777
633.349;  -10.527;  173.872;  121.231
633.622;  -52.680; -187.119; -240.785
633.895; -122.638; -903.120; -823.783
634.167;  -70.812; -496.126; -525.773
634.440;  -26.748;  -19.116; -137.792
634.713;   -7.150;  -22.119; -120.786
634.986;   71.938;  593.871;  453.233
635.258;  -83.291; -507.115; -597.793
635.531;   85.384;  742.882; -343.788
635.804;  -42.485; -303.117; -318.789
636.077;  -96.802; -830.116; -852.791
636.349;  -31.443; -586.115; -474.793
636.622;  342.935; 1695.874; 1392.228
636.894;  160.116; -474.120; -909.784
637.167;   77.280; -836.127; -789.771
637.439;   14.301; -278.128; -213.770
637.712;  -67.038; -312.126; -293.772
637.984;  -90.826; -635.116; -707.791
638.257;  329.411;  515.877;  488.222
638.529;  454.202; -881.125; -924.776
638.802;  179.219; -508.128; -449.769
639.074; -117.575; -927.122; -952.781
639.346; -133.358; -942.135; -930.757
639.619;  -15.945;  -79.142; -319.744
639.891;  -19.581;  -83.122; -168.779
640.163;  -79.255; -689.122; -756.780
640.435;   24.372;  273.878;  103.220
640.708;   -4.276;  -72.122; -132.780
640.980;  -33.349; -366.122; -362.781
641.252;  174.653;  -25.121;  -71.781
641.524; 1577.854;  580.879;  573.219
641.796; 1557.331;-1094.121; -907.782
642.068;  264.433; -191.121; -300.782
642.340;  -57.890; -486.121; -566.783
642.613;   26.536;  294.880;  323.217
642.885; -115.937; -787.120; -878.783
643.157;  -60.685; -810.120; -658.784
643.428;   55.792;  170.880;  218.216
643.700;  -87.757; -498.120; -425.784
643.972;  -42.730;  -16.119; -133.785
644.244;  -96.028; -474.119; -559.785
644.516;  -59.301; -250.119; -114.786
644.788;   55.550;  662.881;  548.214
645.060;  -27.073;  -12.119; -124.786
645.332; -110.771; -525.118; -535.787
645.603;   24.881;  479.882;  342.213
645.875;  -82.093; -334.118; -369.787
646.147;  180.534; 1487.882; 1242.212
646.418;  -95.839; -931.117; -918.788
646.690;   70.538; -714.117; -715.789
646.962;   -3.686; -413.117; -451.789
647.233;  -21.634;   15.883;   11.211
647.505;  -98.407; -595.117; -475.790
647.776;   23.870;  328.884;  229.210
648.048;  -24.604; -248.116; -418.790
648.320;  -85.852; -752.116; -679.791
648.591; -164.025;-1055.116; -958.791
648.862;  -86.973; -505.116; -577.792
649.134;    6.628;  115.885;  198.208
649.405;  -68.045; -661.115; -618.792
649.677;  -76.093; -475.115; -598.793
649.948;  -31.341; -181.115; -296.793
650.219;  -25.440;  -37.115; -147.793
650.491;  -88.138; -431.114; -520.794
650.762; -136.386; -705.114; -731.794
651.033;  -88.134; -437.114; -424.795
651.304; -116.033; -743.114; -728.795
651.576;  -81.106; -680.114; -645.795
651.847;  -37.229; -250.113; -140.796
652.118;  -36.627;  -32.113; -189.796
652.389; -119.126; -639.113; -722.796
652.660;  -40.449; -147.113;  -89.797
652.931; -157.322; -897.112; -871.797
653.202;  -84.520; -382.112; -541.798
653.473;  -73.844; -633.112; -533.798
653.744;  104.183; -595.112; -590.798
654.015;   88.085; -356.112; -303.799
654.286;  -79.863; -642.111; -663.799
654.557;  -72.537; -586.111; -521.799
654.828; -164.085;-1114.111;-1088.800
655.099;  -79.658; -404.111; -291.800
655.370;  -96.831; -427.111; -543.801
655.641; -126.805; -656.110; -714.801
655.911;  -92.578; -618.110; -638.801
656.182;   68.974;  437.890;  387.198
656.453;  104.201;  830.890;  746.198
656.724;  -92.873; -466.110; -426.802
656.994;  -97.346; -553.109; -568.803
657.265; -122.619; -862.109; -873.803
657.536;  -93.367; -500.109; -377.804
657.806; -114.466; -561.109; -593.804
658.077; -143.239; -866.109; -950.804
658.347;  -97.537; -523.108; -598.805
658.618; -119.360; -646.108; -694.805
658.888;  -29.459;  -41.108;  112.195
659.159;  -82.582; -432.108; -548.806
659.429;  -32.855; -292.108; -349.806
659.700;   -0.478; -435.107; -390.807
659.970;  -28.452; -370.107; -359.807
660.241;  -17.850; -754.107; -921.807
660.511;  414.627; -147.107; -174.808
660.781;   47.704; -793.106; -748.808
661.052;  -37.545; -222.106; -381.808
661.322;  -15.118;   21.894;   -9.809
661.592;    8.134;  257.894;  148.191
661.862;  -80.689; -369.106; -382.810
662.133;  -99.038; -551.105; -502.810
662.403; -124.711; -770.105; -676.810
662.673;  -67.884; -256.105; -213.811
662.943; -109.182; -612.105; -551.811
663.213;  -24.456;  -85.105;  -81.811
663.483;  -78.854; -593.104; -568.812
663.753;  -69.502; -194.104; -152.812
664.023;  -23.575;   68.896;  -32.813
664.293;  -70.349; -319.104; -126.813
664.563; -116.597; -694.104; -648.813
664.833; -136.045; -743.103; -608.814
665.103; -123.643; -730.103; -793.814
665.373; -131.967; -766.103; -806.814
665.643; -106.465; -863.103; -918.815
665.913;   -0.688; -534.103; -714.815
666.182;   93.614; -685.102; -719.816
666.452;  201.090;  -22.102;  -89.816
666.722;  -32.933; -724.102; -784.816
666.992; -129.806; -948.102; -921.817
667.261; -103.729; -824.102; -808.817
667.531;  167.172;  134.899;   45.183
667.801;  505.424; -440.101; -412.818
668.070;  227.626;  714.899;  697.182
668.340; -104.072; -883.101; -840.819
668.609;   61.854;  588.900;  301.181
668.879;  -84.169; -490.100; -558.819
669.149;  -78.642; -539.100; -516.820
669.418; -113.940; -698.100; -726.820
669.688;  -44.764; -482.100; -666.820
669.957;   38.413; -423.099; -546.821
670.226;  -36.935; -268.099; -331.821
670.496; -100.008; -431.099; -635.822
670.765;  -92.807; -418.099; -501.822
671.034; -142.605; -872.099; -828.822
671.304;  -21.703;   55.902; -111.823
671.573; -160.276;-1085.098; -957.823
671.842;   38.925; -380.098; -294.823
672.112;   -6.323; -692.098; -586.824
672.381;  -22.121; -239.098; -214.824
672.650; -139.694;-1005.097;-1021.825
672.919;  -98.993; -631.097; -507.825
673.188; -106.366; -681.097; -878.825
673.457; -177.714;-1101.097;-1143.826
673.726;  -86.612; -579.096; -646.826
673.995;  -57.211; -533.096; -479.826
674.265;  -31.184; -263.096; -333.827
674.534;  -11.532; -183.096; -235.827
674.802;  -19.930; -618.096; -703.828
675.071;  785.021; -886.095; -801.828
675.340; 3080.623; -464.095; -339.828
675.609; 1026.100;  103.905;   82.171
675.878;   33.577; -949.095; -893.829
676.147;   15.153;  -26.095;   -8.829
676.416;   59.980; -210.094; -294.830
676.685;  600.132; 1000.906; -622.830
676.953;   51.409; -603.094; -452.831
677.222;  -44.190; -193.094; -273.831
677.491;  -30.338;  -24.094; -127.831
677.759;  -19.361;   11.907;  172.168
678.028;  -39.884; -279.093; -222.832
678.297;  -13.283;   71.907;  197.168
678.565; -155.231; -898.093; -944.833
678.834;  -83.454; -311.093; -268.833
679.102;  -74.652; -411.092; -391.834
679.371; -161.351; -898.092; -727.834
679.639; -145.274; -797.092; -786.834
679.908; -135.222; -794.092; -724.835
680.176; -152.370; -895.091; -941.835
680.445;  -86.844; -346.091; -352.835
680.713;  -20.367;  -58.091;  -23.836
680.982; -108.865; -523.091; -525.836
681.250; -101.488; -578.091; -507.837
681.518; -107.787; -534.090; -751.837
681.787;  -42.685; -204.090; -167.837
682.055;  -76.433; -490.090; -422.838
682.323; -147.006; -993.090; -992.838
682.591;   -0.005; -216.090; -538.838
682.859;   51.722;    9.911;  -35.839
683.128;   -2.176;  232.911;  497.161
683.396; -173.949;-1102.089;-1122.840
683.664;  -43.323; -241.089;   21.160
683.932;   -8.121;  144.911;  -76.840
684.200;  -91.294; -576.088; -320.841
684.468;  -26.292;  -73.088; -124.841
684.736;  -59.866; -214.088; -175.841
685.004; -144.239;-1024.088; -982.842
685.272;  -72.862; -880.088; -774.842
685.540;  -70.485; -499.087; -557.843
685.808; -105.109; -651.087; -682.843
686.076; -109.782; -894.087; -969.843
686.343;  -82.055; -601.087; -815.844
686.611;   31.147; -195.087; -224.844
686.879;  360.623; -530.086; -553.844
687.147; 2616.850; -483.086; -480.845
687.414;  751.202;  -12.086; -169.845
687.682;  -38.821; -658.086; -757.846
687.950;  230.680;  259.915;  263.154
688.217;  -14.118; -792.085; -760.846
688.485;  -31.441; -632.085; -636.847
688.753;  402.861;  -11.085; -102.847
689.020;   81.612; -820.085; -851.847
689.288; -121.786; -853.084; -787.848
689.555;  -49.359; -195.084; -148.848
689.823;  -49.882; -241.084; -345.849
690.090;  -99.056; -546.084; -651.849
690.358; -153.304; -877.084; -897.849
690.625;   -3.752;  120.917;   45.150
690.892;  -93.625; -403.083; -369.850
691.160;  -30.574;   72.917;  -35.850
691.427;    1.803;  141.917;  130.149
691.694; -137.870; -855.083; -929.851
691.962; -146.143;-1177.082;-1060.852
692.229;   -5.317;  127.918;   56.148
692.496;   56.385;  130.918;  -49.852
692.763;  -19.338; -164.082; -201.853
693.031;  -77.511; -739.082; -716.853
693.298;  -54.585; -509.081; -368.853
693.565;  238.392; -155.081; -163.854
693.832;  985.144;   -5.081;   -9.854
694.099;   88.121; -643.081; -642.855
694.366;  -80.303; -882.081; -896.855
694.633;  -74.126; -920.080; -633.855
694.900;  718.551; 4367.920; -114.856
695.167;  364.653; -214.080; -380.856
695.434;   76.004; -646.080; -623.856
695.701;  165.656;  121.921;  -61.857
695.968;  383.558; -365.079; -361.857
696.234;  948.760; -415.079; -646.858
696.501;10147.311; -776.079; -614.858
696.768; 5110.138; -554.079; -617.858
697.035;  291.465; -632.078; -667.859
697.302;   35.267; -448.078; -552.859
697.568;    2.393; -458.078; -497.859
697.835;  -39.205; -683.078; -624.860
698.102;  -48.978; -498.078; -407.860
698.368;   83.974;  384.923;  396.139
698.635;  -37.450;  -47.077; -424.861
698.901;  -24.723; -240.077; -348.861
699.168;   43.229; -534.077; -456.862
699.435;   51.606;  -72.077;  -13.862
699.701; -123.143; -868.076; -764.862
699.968;   14.934;  144.924; -441.863
700.234; -105.889; -783.076; -822.863
700.500;  -56.087; -448.076; -539.864
700.767;   -5.411;   -1.075;   26.136
701.033; -130.459;-1015.075; -963.864
701.299;  -53.157; -450.075; -483.865
701.566;  114.795;  950.925;  763.135
701.832;   23.821;  -31.075;  -76.865
702.098; -111.152;-1054.074;-1034.866
702.365;  -93.375;-1098.074;-1030.866
702.631;  -45.523;-1038.074;-1063.867
702.897; 1194.128; -765.074; -676.867
703.163; 1976.655;  348.926;  254.133
703.429;  134.232; -256.073; -273.868
703.695;  -34.816; -796.073; -792.868
703.961;    3.335; -214.073; -210.868
704.227;  -61.363; -630.073; -725.869
704.493;  121.189;  613.927;  510.131
704.759;  -17.734; -565.072; -540.870
705.025;   31.042; -203.072; -194.870
705.291;    0.569; -666.072; -562.870
705.557;  200.571;  719.928;   34.129
705.823;   27.573; -742.072; -694.871
706.089;  142.999; -307.071; -326.871
706.355;  396.276; -315.071; -244.872
706.620; 5947.003; -776.071; -729.872
706.886; 7801.755; -309.071; -362.873
707.152;  692.181; -818.070; -973.873
707.418;   -7.717;-1153.070;-1186.873
707.683;   -3.215; -550.070; -530.874
707.949;  -48.763; -547.070; -578.874
708.215;    0.588; -129.070; -207.874
708.480;  -35.910; -520.069; -420.875
708.746;   75.992;   68.931;   28.125
709.011;  -54.281; -578.069; -612.876
709.277;  -84.980; -538.069; -543.876
709.542;  -57.953; -428.069; -387.876
709.808;   -9.101;  -59.068;   89.123
710.073;  -76.949; -577.068; -695.877
710.339;  -29.823; -242.068; -228.877
710.604;   54.279; -780.068; -845.878
710.869;  278.731; -277.068; -366.878
711.135;  -73.467; -715.067; -628.879
711.400;  -96.366; -507.067; -608.879
711.665;  -63.364; -404.067; -479.879
711.931; -110.737; -661.067; -677.880
712.196; -127.035; -876.067; -954.880
712.461;   72.866; -402.066; -490.880
712.726;   86.218; -727.066; -771.881
712.991;  -91.355; -647.066; -664.881
713.256;  -46.703; -350.066; -332.882
713.521;  -66.377; -417.065; -381.882
713.787;  -45.275; -454.065; -472.882
714.052;  -47.348; -214.065; -400.883
714.317;  -81.021;-1045.065; -981.883
714.581; 1079.455; -374.065; -268.883
714.846; 1453.707; -822.064; -888.884
715.111;  123.134;  261.936;  257.116
715.376;  -36.964;  -86.064; -223.885
715.641;   -9.313; -365.064; -367.885
715.906;  232.864;   15.936; -551.885
716.171;  120.491;  221.937;  209.114
716.436;   28.668;  -78.063; -104.886
716.700; -113.956; -818.063; -692.886
716.965; -126.454; -794.063; -807.887
717.230;  -70.277; -339.063; -392.887
717.494;  -48.350;  -40.062; -134.888
717.759;  -98.699; -784.062; -640.888
718.024;    1.028;  269.938;  250.112
718.288;   59.455;  685.938;  395.111
718.553; -156.493; -803.062; -977.889
718.817; -143.442; -883.061; -899.889
719.082;  -34.515; -115.061; -125.890
719.346; -147.213;-1000.061; -947.890
719.611;  -49.811; -300.061; -255.891
719.875; -109.709; -568.060; -537.891
720.140;  -74.983; -453.060; -603.891
720.404;   13.869; -136.060; -249.892
720.668;  659.921; -475.060; -411.892
720.933;  256.548;  146.940;  137.108
721.197; -104.451; -667.059; -600.893
721.461; -145.074; -851.059; -826.893
721.725;  -20.747;  -21.059; -250.894
721.990;  -65.645; -284.059; -204.894
722.254;  -29.894;  -26.059; -108.894
722.518;  -84.767; -286.058; -442.895
722.782;  -90.515; -743.058; -594.895
723.046;   97.462;  614.942;  570.105
723.310;   25.638;  374.942;  210.104
723.574; -113.735; -654.058; -614.896
723.838; -116.208; -576.057; -642.897
724.102;  -56.031; -226.057; -239.897
724.366; -146.205;-1032.057; -978.897
724.630; -117.803; -749.057; -571.898
724.894;  -86.526; -722.057; -514.898
725.158;  -18.849;   38.944; -295.898
725.422;  -63.323; -394.056; -327.899
725.685;  -69.721; -441.056; -349.899
725.949;  -90.469; -566.056; -519.900
726.213;  -93.542; -732.056; -811.900
726.477;  103.984;-1020.055; -933.900
726.740;  110.911; -274.055; -104.901
727.004;  318.238; -384.055; -510.901
727.268; 3420.390; -442.055; -400.901
727.531;  927.266; -961.055; -775.902
727.795;  -44.407; -713.054; -673.902
728.059;  -72.555; -552.054; -557.903
728.322;  -78.478; -841.054; -669.903
728.586;   -7.752; -692.054; -701.903
728.849;  -97.400; -695.053; -756.904
729.112; -127.973; -812.053; -912.904
729.376; -130.171; -959.053; -905.904
729.639;  -73.395; -536.053; -536.905
729.903; -127.268; -733.053; -699.905
730.166;  -55.391; -437.052; -399.906
730.429;  -44.889; -317.052; -468.906
730.693;  -70.613; -355.052; -894.906
730.956;  187.914;  810.948;  651.093
731.219;  599.716; -310.052; -103.907
731.482;   59.768;-1003.051; -894.907
731.745;   46.369; -794.051; -935.908
732.009;    5.246;  -30.051;   50.092
732.272;  -95.452; -904.051; -771.909
732.535;  -54.900; -300.051; -310.909
732.798; -163.224;-1083.050;-1166.909
733.061;  -69.422; -430.050; -456.910
733.324;   -4.845;   31.950; -180.910
733.587;   47.932;  290.950;  365.090
733.850;  -79.442; -973.049;-1050.911
734.113;   26.285;   33.951;   32.089
734.376;  -21.588; -328.049; -447.912
734.639;  178.689; 1188.951; 1011.088
734.901;   60.515; -180.049; -402.912
735.164;  413.917; -883.048; -837.913
735.427; 1088.319; -166.048; -355.913
735.690;   93.096; -205.048; -234.913
735.952;  -53.753; -923.048; -925.914
736.215;  -47.901;-1113.048;-1009.914
736.478;   12.076; -771.047; -774.915
736.740;  176.753;   33.953;  129.085
737.003;  564.079; -658.047; -672.915
737.266; 3345.281;  -94.047;   46.084
737.528;  363.233; -682.047; -660.916
737.791;  291.135; -316.046; -327.916
738.053;  762.711;  465.954;  649.083
738.316;10469.938; -162.046; -136.917
738.578; 7154.765; -770.046; -736.918
738.841;  414.842; -382.046; -446.918
739.103;  140.843; -875.045; -777.918
739.365;  427.620;   79.955;  -69.919
739.628;  -12.178; -884.045; -805.919
739.890;  -49.251; -758.045; -710.919
740.152;  -49.875; -692.044; -754.920
740.414;  -31.498; -408.044; -359.920
740.677;  -57.671; -785.044; -634.921
740.939;  -61.019; -587.044; -487.921
741.201;  199.232; -432.044; -572.921
741.463;   -3.041; -689.043; -745.922
741.725;   -1.664;  -21.043; -199.922
741.987;   52.813;  220.957;  116.078
742.249;  -26.211; -751.043; -859.923
742.511;  150.941; -703.043; -794.923
742.773;  -12.707; -546.042; -546.924
743.035;  121.545;  796.958;  533.076
743.297;  -66.804; -963.042;-1013.924
743.559;  638.048; -278.042; -262.925
743.821;   35.000; -735.042; -744.925
744.083;   -6.848;  -44.041; -149.925
744.345; -104.697; -869.041; -892.926
744.607;   15.580;   75.959;  122.074
744.868;  -58.018; -490.041; -554.927
745.130; -121.841; -994.041;-1008.927
745.392;   23.960;   -1.040;  -44.927
745.653;  -33.038; -411.040; -378.928
745.915;  124.889;  896.960;  631.072
746.177;   36.741;   35.960;  -43.928
746.438;  -13.533; -428.040; -543.929
746.700;  -67.281; -947.039; -988.929
746.961;  -12.229; -659.039; -740.930
747.223;  122.298; -190.039;  -74.930
747.484;   55.249; -391.039; -471.930
747.746;  110.201;  -23.038; -106.931
748.007;   72.828; -647.038; -689.931
748.269;  240.130; -468.038; -440.931
748.530;  395.681; -852.038; -638.932
748.791;  213.033; -354.038; -420.932
749.053;  418.310;  286.963;  163.067
749.314;  392.787; -236.037; -169.933
749.575;  440.713; -945.037; -905.933
749.836;  755.840; -217.037;   86.066
750.098; 2290.417;  -60.037;  -21.934
750.359;33083.019;  414.964;  555.066
750.620; 8152.595; -121.036; -220.935
750.881;  913.747; -585.036; -513.935
751.142; 1227.249; -950.036; -938.936
751.403;16016.926; -789.036; -705.936
751.664; 6744.802;-1034.035; -999.936
751.925;  436.529; -175.035; -262.937
752.186;  243.581; -298.035; -278.937
752.447;  105.183; -590.035; -445.937
752.708;   30.009; -532.035; -648.938
752.969;   -9.964; -566.034; -576.938
753.230;  -34.737; -777.034; -672.939
753.491;  -22.110; -650.034; -631.939
753.751;   42.516;  109.966;   19.061
754.012;   68.043;  258.967;  181.060
754.273;   40.320; -174.033;  -71.940
754.534;  -13.628; -487.033; -580.940
754.794; -105.477; -926.033; -911.941
755.055;  144.425; 1051.967;  881.059
755.316;  -48.223; -700.032; -566.942
755.576;  -37.096; -606.032; -576.942
755.837;  -54.320; -527.032; -695.942
756.097;  -50.468; -530.032; -564.943
756.358;  -70.041; -725.032; -770.943
756.618;  -64.489; -705.031; -641.943
756.879;  -21.763; -254.031; -349.944
757.139; -139.436;-1098.031;-1116.944
757.400;  -61.834; -538.031; -553.945
757.660;  -25.382; -365.031; -401.945
757.920;  -22.281; -266.030; -228.945
758.181;  -37.229; -468.030; -351.946
758.441;  -91.552; -870.030; -809.946
758.701;  -50.150; -308.030; -215.946
758.961;  -27.249; -220.030; -278.947
759.222;  -63.072; -574.029; -502.947
759.482;  -88.595; -683.029; -723.948
759.742;  -95.468; -706.029; -547.948
760.002;   -8.942;  -83.029; -143.948
760.262;   12.060;   50.972;  182.051
760.522;  -36.388; -498.028; -574.949
760.782;  -68.236; -738.028; -612.949
761.042;  -46.960; -618.028; -573.950
761.302;   25.842;   55.972;  -18.950
761.562;   40.744; -164.027; -154.951
761.822;   64.071; -710.027; -551.951
762.082;  -46.953;-1104.027;-1093.951
762.342;   38.549; -328.027; -403.952
762.601;   75.151; -567.027; -506.952
762.861;  297.128; -281.026; -207.952
763.121;  370.154; -406.026; -411.953
763.381; 7189.656; -499.026; -485.953
763.640; 7662.808; -139.026; -307.954
763.900;  325.935; -242.026; -203.954
764.160;   81.336; -458.025; -491.954
764.419;  -36.537; -726.025; -782.955
764.679;  -65.660; -795.025; -726.955
764.939;  -27.133; -124.025; -210.955
765.198;  -86.732; -608.025; -563.956
765.458;  -91.780; -710.024; -612.956
765.717;  -94.253; -454.024; -590.957
765.976;  -54.551; -428.024; -411.957
766.236;  -71.350; -475.024; -610.957
766.495;   -5.148;  260.977;   73.042
766.755; -112.096;-1090.023; -987.958
767.014;  -23.669; -594.023; -665.958
767.273;  -48.243; -373.023; -397.959
767.533;  -47.566; -228.023; -307.959
767.792;  -32.064; -151.022; -188.960
768.051;  -64.887; -228.022; -276.960
768.310;  -89.636; -546.022; -650.960
768.569;  -14.509; -161.022;    4.039
768.828;  -37.107; -285.022; -363.961
769.088; -125.930;-1050.021; -942.961
769.347;  -83.429; -755.021; -599.962
769.606;  -97.002; -876.021; -857.962
769.865; -131.225;-1016.021;-1033.963
770.124;  -10.923; -411.021; -336.963
770.383;  -58.147; -778.020; -910.963
770.641;  -21.995; -398.020; -400.964
770.900;  -76.993; -953.020; -846.964
771.159;  -53.541; -851.020; -951.964
771.418;  -19.265; -917.020; -779.965
771.677;  130.062; -224.019; -293.965
771.936;  149.689; -794.019; -865.966
772.194; 2453.641; -465.019; -437.966
772.453;11375.867; -213.019; -391.966
772.712;  761.019;  416.982;  329.033
772.970;  129.921;   32.982;   63.033
773.229;   98.173;  -22.018;  102.033
773.488;  -95.226; -814.018; -770.968
773.746;   47.051;  296.982;  335.032
774.005;   -3.997;  190.983;  -22.969
774.263;   10.005;  243.983;  177.031
774.522;  -49.994; -422.017; -548.969
774.780;  -95.192; -484.017; -417.970
775.039;  -94.340; -551.017; -531.970
775.297;  -26.938; -135.016; -351.970
775.555; -111.812; -489.016; -612.971
775.814; -129.435; -618.016; -570.971
776.072; -126.358; -749.016; -740.971
776.330; -107.806; -630.016; -520.972
776.589; -115.180; -703.015; -721.972
776.847; -141.928; -645.015; -624.973
777.105; -162.576;-1016.015;-1032.973
777.363;  -97.024; -459.015; -454.973
777.621; -145.223; -660.015; -717.974
777.879;  -33.271;  -42.014;   32.026
778.138; -109.694; -554.014; -717.974
778.396;  -99.442; -585.014; -526.975
778.654; -170.166;-1015.014; -970.975
778.912;  -82.014; -269.014; -371.976
779.170; -139.487; -880.013; -803.976
779.427; -137.085; -922.013; -897.976
779.685; -139.809; -880.013; -832.977
779.943; -101.132; -654.013; -593.977
780.201; -170.580; -964.012; -883.978
780.459; -129.953; -651.012; -610.978
780.717;  -96.427; -440.012; -390.978
780.974; -103.950; -449.012; -490.979
781.232;  -72.198; -358.012; -338.979
781.490;  -93.996; -551.011; -472.979
781.747; -103.295; -555.011; -476.980
782.005;   15.657;  462.989;  254.020
782.263; -169.266; -542.011;-1004.981
782.520;  -90.164; -326.011; -501.981
782.778; -161.638;-1013.010;-1051.981
783.035; -174.436; -962.010; -938.982
783.293;  -49.709; -248.010; -206.982
783.550;  -79.432; -134.010; -198.982
783.808; -129.181; -764.010; -776.983
784.065; -166.504; -745.009; -874.983
784.322;  -54.002;   25.991;  -86.984
784.580; -144.950; -915.009; -771.984
784.837;  -91.899; -392.009; -466.984
785.094; -154.597; -783.009; -762.985
785.352;  -66.245; -304.008; -404.985
785.609; -123.518; -934.008; -839.985
785.866;  -92.842; -345.008; -401.986
786.123;  -86.315; -639.008; -583.986
786.380; -106.538; -665.008; -604.987
786.637;  -59.986; -225.007; -380.987
786.895;  -30.985; -456.007; -543.987
787.152;  -36.433; -135.007; -267.988
787.409;  -49.381; -123.007; -225.988
787.666; -106.004; -299.006; -378.988
787.923; -106.553; -616.006; -695.989
788.179; -106.526; -551.006; -584.989
788.436; -122.524; -585.006; -585.990
788.693;  -36.122;  -92.006;  -87.990
788.950;  105.279; -125.005; -112.990
789.207;  145.606; -381.005; -372.991
789.464;  -58.017; -161.005; -301.991
789.720;  -24.640;  150.995;  110.009
789.977; -169.189;-1003.005; -671.992
790.234;  -51.212;   44.996;  -66.992
790.490; -147.860; -884.004;-1031.993
790.747;  -30.883;  -85.004;   22.007
791.004;  -48.707; -426.004; -348.993
791.260;  -83.905; -430.004; -560.994
791.517; -127.703; -843.003; -788.994
791.773;  -60.001; -379.003; -342.994
792.030; -114.275; -596.003; -660.995
792.286; -106.923; -686.003; -636.995
792.543;  -22.621;  -74.002; -159.995
792.799;  -72.569; -584.002; -382.996
793.055; -167.493;-1179.002;-1210.996
793.312; -105.541; -827.002; -816.997
793.568;  -83.964; -746.002; -599.997
793.824;    3.488; -226.001; -284.997
794.081;    4.639; -447.001; -508.998
794.337;   32.166; -664.001; -561.998
794.593; 1257.718; -319.001; -271.999
794.849; 6026.420; -746.001; -772.999
795.105;  288.371; -270.000; -261.999
795.361;   -3.427; -490.000; -457.000
795.617;  -83.225; -875.000; -945.000
795.873;  -54.000; -360.000; -407.000
796.129;  -48.850; -368.000; -306.000
796.385;  -33.300; -124.000; -156.000
796.641;   48.925;  412.000;  550.000
796.897;  -92.650; -666.000; -635.000
797.153;   66.050;  453.000;  357.000
797.409; -121.550; -785.000; -868.000
797.665;  -82.950; -625.000; -732.000
797.921;  -91.275; -775.000; -762.000
798.176;  -71.950; -744.000; -747.000
798.432;  -56.550; -824.000; -596.000
798.688;  -88.650;-1174.000;-1078.000
798.943;   83.025; -165.000; -147.000
799.199;  -12.975;-1005.000; -959.000
799.455;  227.475;  369.000;  316.000
799.710;  130.700; -813.000; -380.000
799.966;  282.875; -162.000; -160.000
800.221;  472.350; -638.000; -721.000
800.477;10467.775; -743.000; -710.000
800.732; 8912.175; -773.000; -800.000
800.988;  621.100;  205.000;  -19.000
801.243; 2113.225; -454.000; -344.000
801.498; 8823.375; -814.000; -739.000
801.754;  484.500; -289.000; -163.000
802.009;   90.125; -257.000; -335.000
802.264;  -42.300; -967.000;-1033.000
802.520;   14.000;  222.000;   -3.000
802.775;  -58.925; -524.000; -359.000
803.030;   25.325;  395.000;  356.000
803.285; -106.675; -840.000; -903.000
803.540;  -66.425; -686.000; -699.000
803.795;  -58.325; -648.000; -583.000
804.051;  -41.450; -279.000; -346.000
804.306;   14.850;  168.000;  128.000
804.561;  119.675;  451.000;  362.000
804.816;  116.500;  714.000;  861.000
805.071;  -12.425; -185.000; -280.000
805.325;  148.400; -257.000; -427.000
805.580; -119.700; -841.000; -877.000
805.835;  -33.400; -204.000; -297.000
806.090;  -89.675; -760.000; -676.000
806.345;  -28.425; -344.000; -264.000
806.600;  -47.200; -549.000; -632.000
806.854;  -43.575; -408.000; -538.000
807.109;  -38.350; -493.000; -577.000
807.364;    0.175; -407.000; -328.000
807.618;  -15.450; -415.000; -381.000
807.873;   13.250; -470.000; -494.000
808.128;   60.350; -257.000; -518.000
808.382;   79.975; -224.000; -332.000
808.637;   47.725; -440.000; -511.000
808.891;  162.900; -257.000; -180.000
809.146;   64.250; -902.000; -794.000
809.400;  222.575; -848.000; -923.000
809.654;  279.925; -779.000; -551.000
809.909;  427.600; -841.000; -927.000
810.163; 6011.600; -813.000; -651.000
810.418;14942.075; -940.000; -861.000
810.672;  941.425; -685.000; -690.000
810.926;  676.750; -993.000; -973.000
811.180; 1389.700; -439.000; -372.000
811.434;31724.750;  240.000;  135.000
811.689;12175.325; -231.000; -365.000
811.943;  574.300; -936.000; -953.000
812.197;  290.700; -893.000; -671.000
812.451;  111.925; -379.000; -514.000
812.705;  -33.925; -809.000; -619.000
812.959;  -21.050; -263.000; -388.000
813.213;  -15.225; -283.000; -209.000
813.467;   82.075;  470.000;  253.000
813.721; -115.075; -764.000; -792.000
813.975; -131.600; -826.000; -877.000
814.229;   29.825;  430.000;  353.000
814.482;  -85.875; -517.000; -566.000
814.736; -129.475; -766.000; -744.000
814.990; -126.975; -779.000; -872.000
815.244;  -52.275; -228.000; -285.000
815.497; -107.775; -636.000; -601.000
815.751;  -27.725; -141.000;   82.000
816.005; -103.575; -470.000; -586.000
816.258;  -84.025; -510.000; -363.000
816.512; -112.575; -693.000; -610.000
816.766;   -8.675;  121.000;  157.000
817.019;   13.750;  148.000;  149.000
817.273; -135.925;-1000.000; -802.000
817.526;  -42.575; -206.000; -173.000
817.779;  -87.050;-1049.000; -960.000
818.033; -101.875; -693.000; -807.000
818.286; -128.625; -725.000; -792.000
818.540;  -96.225; -403.000; -403.000
818.793;  -78.400; -402.000; -489.000
819.046; -111.125; -582.000; -520.000
819.299;  -41.075; -157.000; -166.000
819.553; -116.200; -552.000; -592.000
819.806; -176.950;-1016.000; -838.000
820.059;  -62.225; -334.000; -354.000
820.312;    4.925;  152.000;  185.000
820.565;  -20.975;  110.000;  -27.000
820.818;  -64.150;  -59.000; -173.000
821.071; -176.225;-1041.000; -957.000
821.324; -113.250; -536.000; -540.000
821.577; -101.875; -457.000; -483.000
821.830;  -77.350; -270.000; -172.000
822.083; -138.925; -733.000; -288.000
822.336;  -49.050; -261.000; -167.000
822.589; -134.350; -805.000; -688.000
822.842; -152.100; -875.000; -770.000
823.094; -177.225;-1076.000;-1114.000
823.347; -154.050; -925.000; -729.000
823.600;   11.725;  402.000;  187.000
823.853;  -70.400; -311.000; -267.000
824.105;  -77.250; -331.000; -575.000
824.358; -107.775; -617.000; -716.000
824.611;   30.525;  234.000;   40.000
824.863;  -55.950; -612.000; -591.000
825.116;   42.975;  -33.000;   27.000
825.368;   41.625; -366.000; -372.000
825.621;  139.375; -186.000; -240.000
825.873;   79.825; -704.000; -737.000
826.126;  578.600; -669.000; -641.000
826.378;11269.725; -389.000; -505.000
826.630; 2601.575; -890.000; -898.000
826.883;   32.975; -754.000; -693.000
827.135;   40.850; -279.000; -270.000
827.387; -131.175; -893.000; -839.000
827.639;  -38.700;  -86.000;   32.000
827.892; -137.225; -742.000; -582.000
828.144; -152.825; -848.000; -804.000
828.396;  -40.925;  104.000;  -80.000
828.648; -104.400; -440.000; -333.000
828.900; -151.250; -702.000; -795.000
829.152; -125.450; -684.000; -683.000
829.404;  -85.775; -215.000; -267.000
829.656;  -43.175;  321.000;  214.000
829.908;  -37.900;  393.000;  229.000
830.160; -173.000;-1064.000;-1047.000
830.412; -113.850; -481.000; -430.000
830.664; -137.425; -557.000; -665.000
830.916;  -86.100; -268.000; -206.000
831.167; -173.500;-1073.000; -951.000
831.419; -122.650; -623.000; -566.000
831.671; -145.100; -764.000; -809.000
831.923; -104.400; -311.000; -447.000
832.174;  -87.175; -273.000; -331.000
832.426; -127.375; -493.000; -582.000
832.678; -200.350;-1043.000;-1091.000
832.929; -182.150; -947.000; -935.000
833.181;  -89.950; -575.000; -677.000
833.432;  -63.875;  -59.000; -186.000
833.684;  -24.525;  112.000;  -27.000
833.935; -132.075; -610.000; -566.000
834.187; -132.650; -829.000; -823.000
834.438;  -46.575;  -58.000;  -25.000
834.689;  -60.600; -255.000; -123.000
834.941;  -70.875; -343.000; -244.000
835.192; -106.700; -590.000; -533.000
835.443; -110.150; -419.000; -506.000
835.695;  -17.950;  138.000;  -16.000
835.946; -101.075; -608.000; -378.000
836.197; -100.600; -599.000; -622.000
836.448; -108.100; -528.000; -395.000
836.699;  -69.775; -253.000; -341.000
836.950;  -20.425;   72.000;    7.000
837.201; -156.725;-1003.000; -987.000
837.452;  -60.550; -356.000; -170.000
837.703; -114.350; -791.000; -737.000
837.954;  -41.125; -205.000; -365.000
838.205; -105.725;-1029.000;-1008.000
838.456;  121.275; -196.000; -282.000
838.707;   -9.500; -423.000; -519.000
838.958;  -13.175; -634.000; -647.000
839.209;  230.300;   18.000;   40.000
839.460;   93.575; -439.000; -201.000
839.710;  140.350; -135.000; -297.000
839.961;  374.750;  730.000;  612.000
840.212;  310.650; -382.000; -497.000
840.462; 1098.325; -328.000; -277.000
840.713;17741.000; -571.000; -536.000
840.964; 6767.650;  -62.000; -143.000
841.214;  437.100; -384.000; -624.000
841.465;  470.525; -214.000; -141.000
841.715;  442.175; -417.000; -380.000
841.966;  562.800; -746.000; -685.000
842.216; 8008.525; -330.000; -431.000
842.466;29363.425; -169.000; -313.000
842.717; 1519.600; -964.000; -952.000
842.967;  241.975; -635.000; -641.000
843.217;  216.650;   20.000;   28.000
843.468;   36.050; -104.000; -132.000
843.718;  -46.800; -718.000; -726.000
843.968; -107.375; -837.000; -765.000
844.218;   -1.400; -315.000; -262.000
844.469;  -73.050; -577.000; -561.000
844.719; -114.300; -537.000; -682.000
844.969; -101.125; -550.000; -580.000
845.219; -146.350; -814.000; -862.000
845.469;  -96.350; -392.000; -342.000
845.719; -148.400; -792.000; -884.000
845.969;  -23.725;  119.000;  174.000
846.219; -119.775; -738.000; -720.000
846.469;   -2.450;  464.000;  432.000
846.718;  -52.250; -115.000;   31.000
846.968; -147.775; -827.000; -827.000
847.218;  -55.200; -224.000; -371.000
847.468;    0.750; -586.000; -555.000
847.718; -147.625; -827.000; -798.000
847.967; -140.350; -826.000; -915.000
848.217;  -96.325; -449.000; -569.000
848.467;  -81.700; -405.000; -376.000
848.716; -117.500; -708.000; -725.000
848.966;  -27.300; -372.000; -358.000
849.215;  -72.650; -428.000; -419.000
849.465; -110.025; -785.000; -615.000
849.714; -157.125;-1132.000;-1150.000
849.964;  -79.350; -551.000; -613.000
850.213;  -35.650; -393.000; -355.000
850.463;   60.675;  137.000;  340.000
850.712;    2.075; -542.000; -567.000
850.961;   12.850; -739.000; -678.000
851.211;   87.350; -513.000; -504.000
851.460;  140.975; -635.000; -650.000
851.709;  555.750;  -25.000;   18.000
851.958;10313.000; -912.000; -750.000
852.208;12079.000; -859.000; -879.000
852.457;  445.000; -181.000;  -13.000
852.706;   60.225; -791.000; -823.000
852.955;   -8.400; -507.000; -528.000
853.204;  -73.875; -521.000; -461.000
853.453;  -92.500; -418.000; -458.000
853.702; -132.250; -660.000; -750.000
853.951; -128.525; -532.000; -520.000
854.200; -116.075; -613.000; -562.000
854.449; -142.475; -695.000; -661.000
854.698;  -95.225; -340.000; -279.000
854.946;  -83.375; -181.000; -284.000
855.195; -169.500; -843.000; -868.000
855.444; -105.900; -395.000; -420.000
855.693; -137.200; -345.000; -432.000
855.941; -125.200; -387.000; -516.000
856.190;  -62.650; -256.000; -382.000
856.439; -139.150; -652.000; -703.000
856.687;  -62.050;  -99.000;  -72.000
856.936; -131.350; -621.000; -323.000
857.184; -193.225;-1067.000;-1020.000
857.433; -131.300; -423.000; -512.000
857.681; -173.550; -989.000; -953.000
857.930;  -94.150; -282.000; -433.000
858.178; -176.850; -856.000; -929.000
858.427; -154.250; -802.000; -781.000
858.675; -134.400; -377.000; -544.000
858.923; -121.775; -527.000; -819.000
859.172; -180.425;-1094.000;-1070.000
859.420; -119.850; -339.000; -239.000
859.668; -142.950; -624.000; -628.000
859.916;  -27.425;  109.000;  115.000
860.164; -124.225; -699.000; -603.000
860.413;  200.000; -878.000; -696.000
860.661;  125.300; -709.000; -577.000
860.909; -111.775; -339.000; -325.000
861.157;  -89.700; -277.000; -444.000
861.405; -140.800; -534.000; -670.000
861.653;    4.375;  310.000;  310.000
861.901;  112.500; -543.000; -613.000
862.149;  -43.925; -801.000; -824.000
862.396;  -85.200; -297.000; -187.000
862.644; -100.850; -368.000; -347.000
862.892;  -48.250;   98.000;  138.000
863.140; -112.775; -549.000; -530.000
863.388; -173.125; -815.000; -759.000
863.635; -139.625; -642.000; -601.000
863.883;  -20.350;  231.000;  190.000
864.131;  -90.625; -288.000; -357.000
864.378; -145.125; -675.000; -540.000
864.626; -106.100; -347.000; -415.000
864.873; -130.650; -556.000; -505.000
865.121; -138.950; -714.000; -799.000
865.368;  -54.150; -173.000;   75.000
865.616;  -40.350;  -33.000;  -40.000
865.863;  -87.650; -462.000; -506.000
866.111; -107.650; -795.000; -824.000
866.358;   52.600; -426.000; -420.000
866.605; 2734.825;  -64.000; -804.000
866.853; 2685.200; -621.000; -537.000
867.100;  -36.325; -728.000; -775.000
867.347; -109.600; -672.000; -611.000
867.594; -100.600; -740.000; -714.000
867.841;   50.775;   97.000;   17.000
868.089; -144.325; -746.000; -698.000
868.336; -120.125; -477.000; -420.000
868.583; -148.800; -637.000; -741.000
868.830;  -57.125; -131.000; -170.000
869.077; -167.700; -859.000; -787.000
869.324; -136.025; -502.000; -458.000
869.571; -134.125; -398.000; -430.000
869.818; -132.000; -485.000; -439.000
870.065; -108.975; -439.000; -513.000
870.311; -125.675; -456.000; -542.000
870.558; -113.750; -332.000; -311.000
870.805; -103.000; -320.000; -384.000
871.052; -112.125; -494.000; -369.000
871.298;  -64.100; -204.000; -131.000
871.545;  -77.925; -151.000; -185.000
871.792; -102.850; -173.000; -222.000
872.038;  -75.850;   43.000; -126.000
872.285; -135.000; -496.000; -387.000
872.532; -107.250; -357.000; -387.000
872.778;   -2.575;  556.000;  403.000
873.025; -103.525; -384.000; -359.000
873.271;    8.750;  501.000;  578.000
873.517;  -28.700; -133.000; -209.000
873.764;  -58.925; -193.000;  -80.000
874.010;  -80.950; -143.000; -230.000
874.257;  -59.800;  123.000;   90.000
874.503; -139.850; -579.000; -479.000
874.749;  -72.625;   31.000;  275.000
874.995;  -71.225;  -80.000;  -20.000
875.242; -138.400; -540.000; -478.000
875.488; -108.125; -414.000; -439.000
875.734;  -68.000; -106.000; -234.000
875.980;  105.825; -872.000;-1032.000
876.226;  259.475; -157.000; -255.000
876.472;   -7.525;  343.000;  237.000
876.718;  -43.400;  184.000;  158.000
876.964;  -39.800;   56.000;   55.000
877.210; -171.975; -547.000; -677.000
877.456; -152.725; -630.000; -557.000
877.702; -190.875; -821.000; -832.000
877.948; -111.925; -377.000; -497.000
878.193;  -23.675;  361.000;  255.000
878.439; -105.700; -487.000; -472.000
878.685; -101.800; -272.000; -343.000
878.931; -139.400; -618.000; -676.000
879.176;  -96.800; -201.000; -201.000
879.422; -186.025; -933.000; -820.000
879.668;   40.950;   10.000;   79.000
879.913;   95.100;   53.000;  137.000
880.159;  -67.075; -112.000;  -17.000
880.404;  -75.150; -152.000; -162.000
880.650;  -41.100;   91.000;  141.000
880.895; -157.475; -670.000; -710.000
881.141; -130.475; -454.000; -428.000
881.386; -162.500; -503.000; -658.000
881.631;  -95.050; -311.000; -166.000
881.877;  -55.900;  112.000;  -13.000
882.122; -142.975; -684.000; -600.000
882.367;  -88.950; -136.000; -186.000
882.612;  -83.750;  -80.000; -176.000
882.858; -189.400; -877.000; -823.000
883.103; -113.275; -297.000; -267.000
883.348; -149.275; -759.000; -852.000
883.593; -151.900; -677.000; -602.000
883.838;  -74.150; -311.000;  -24.000
884.083;    5.275;  353.000;  288.000
884.328;  -89.150; -564.000; -545.000
884.573;  -67.100; -196.000; -143.000
884.818;  131.200; -694.000; -531.000
885.063;  112.100; -348.000; -315.000
885.308; -111.325; -475.000; -398.000
885.553;  -29.550;  245.000;  325.000
885.797; -123.625; -545.000; -615.000
886.042;  -63.000;    8.000;   58.000
886.287;  -91.925; -253.000; -211.000
886.532;  -65.125;   26.000;  204.000
886.776; -110.075; -407.000; -525.000
887.021; -145.625; -621.000; -574.000
887.265; -158.700; -685.000; -689.000
887.510; -136.075; -557.000; -496.000
887.755;  -94.025; -194.000; -164.000
887.999; -153.950; -552.000; -575.000
888.244;  -70.850;  -58.000;  161.000
888.488;  -11.875;  371.000;  393.000
888.732; -126.850; -368.000; -520.000
888.977; -135.450; -622.000; -567.000
889.221; -155.750; -683.000; -659.000
889.465; -132.300; -422.000; -566.000
889.710;  -95.775;  -56.000; -299.000
889.954;   -4.950;  579.000;  467.000
890.198; -152.800; -584.000; -707.000
890.442; -155.100; -716.000; -712.000
890.687; -166.850; -800.000; -753.000
890.931; -100.950; -273.000; -210.000
891.175; -130.600; -502.000; -500.000
891.419;  -94.225; -105.000; -110.000
891.663; -102.550; -239.000; -112.000
891.907; -162.600; -801.000; -545.000
892.151; -184.250; -920.000; -815.000
892.395; -119.050; -274.000; -387.000
892.638;  -25.950;  408.000;  291.000
892.882; -197.700; -780.000; -867.000
893.126;   15.925;  758.000;  558.000
893.370;  -99.800; -167.000; -168.000
893.614; -147.500; -714.000; -715.000
893.857; -115.000; -183.000; -197.000
894.101; -133.925; -527.000; -631.000
894.345;  -61.250;  300.000;  150.000
894.588;   10.150;  569.000;  380.000
894.832;  -91.650; -178.000;  -84.000
895.075;  -86.500;   15.000;  -92.000
895.319; -145.150; -552.000; -420.000
895.563; -126.175; -413.000; -353.000
895.806; -156.275; -628.000; -741.000
896.049;  -92.475; -576.000; -368.000
896.293;   48.850;  527.000;  405.000
896.536;  -85.375; -465.000; -468.000
896.779;  -77.975; -149.000;   -1.000
897.023; -143.625; -751.000; -714.000
897.266;  -25.400;  325.000;  269.000
897.509; -173.750; -900.000; -901.000
897.752;  -53.950;  149.000;  171.000
897.996; -196.325; -972.000; -864.000
898.239;  -52.850;  168.000;  102.000
898.482; -118.500; -431.000; -453.000
898.725;  -56.850;  101.000;   53.000
898.968; -164.625; -609.000; -744.000
899.211; -125.775; -513.000; -361.000
899.454; -141.350; -633.000; -539.000
899.697;  -84.900;   90.000;  -43.000
899.940; -175.575; -761.000; -757.000
900.182; -115.375; -335.000; -405.000
900.425;  -97.375; -150.000; -298.000
900.668;  -27.950;  491.000;  350.000
900.911; -106.050; -292.000; -345.000
901.154;  -56.675;  141.000;   -3.000
901.396; -138.750; -407.000; -412.000
901.639; -158.275; -430.000; -496.000
901.882; -180.625; -790.000; -809.000
902.124;  -91.100;  -29.000; -143.000
902.367; -128.350; -315.000; -361.000
902.609; -146.775; -476.000; -453.000
902.852;  -97.900; -108.000; -260.000
903.094; -150.125; -458.000; -337.000
903.337;  -59.800;  -26.000;   53.000
903.579; -122.950; -228.000; -441.000
903.821; -160.175; -597.000; -744.000
904.064;  -75.775;   85.000;  127.000
904.306; -107.000; -126.000; -166.000
904.548; -112.075; -152.000; -366.000
904.790; -114.825; -195.000; -340.000
905.033; -140.275; -625.000; -577.000
905.275; -141.075; -513.000; -524.000
905.517;   20.375;  468.000;  256.000
905.759;  -95.050; -667.000; -761.000
906.001; -107.825; -322.000; -369.000
906.243;  -75.800; -162.000; -224.000
906.485;   78.250; -265.000; -207.000
906.727;   41.025; -499.000; -542.000
906.969;  -56.375;  -30.000; -135.000
907.211;   74.725; -316.000; -382.000
907.453;  187.850; -188.000; -237.000
907.695;  -26.600; -158.000; -385.000
907.936;   19.800;  818.000;  706.000
908.178;  -64.475;   92.000; -135.000
908.420;  -89.775; -111.000; -162.000
908.662; -144.100; -633.000; -682.000
908.903;  -95.200; -208.000; -123.000
909.145;  -85.275; -240.000; -305.000
909.386;  -10.275;  315.000;  280.000
909.628;   27.725;  363.000;  397.000
909.870;  -17.150;   29.000;  264.000
910.111; -119.275; -809.000; -949.000
910.353;   -5.425; -123.000; -161.000
910.594;  -10.075; -574.000; -606.000
910.835;   63.500; -265.000; -326.000
911.077;  143.850; -503.000; -604.000
911.318;  250.050; -505.000; -471.000
911.559;  423.200; -577.000; -880.000
911.801; 1313.850; -284.000; -280.000
912.042;10381.475;  -50.000; -159.000
912.283;25936.975;  404.000;  371.000
912.524; 3780.850; -396.000; -457.000
912.765;  453.925; -193.000;   79.000
913.006;  223.200; -307.000; -338.000
913.247;   40.875; -270.000; -290.000
913.488;  -19.750;  -43.000;   30.000
913.729; -104.475; -373.000; -373.000
913.970;  -66.675;  -96.000; -292.000
914.211;  -86.025; -160.000; -198.000
914.452;  -65.325; -118.000;  -11.000
914.693;    3.375;  510.000;  592.000
914.934;   -1.800;  510.000;  440.000
915.175;  -84.425;   53.000;  -95.000
915.415;  -77.475; -137.000;   27.000
915.656;  -67.200;  -28.000;  192.000
915.897;  -98.700; -252.000;  -82.000
916.137;  -95.275;   74.000;   -9.000
916.378; -138.150; -573.000; -517.000
916.619;  -95.975; -159.000;  -63.000
916.859;  -24.075;  303.000;  330.000
917.100;  136.800; 1655.000; 1070.000
917.340;   57.250;  930.000;  728.000
917.581;   39.725;  965.000;  789.000
917.821;  -54.375; -171.000;  143.000
918.061;  -27.650; -199.000;  -72.000
918.302;  -86.700; -152.000; -211.000
918.542;  -34.225;  -22.000;    3.000
918.782;   24.700;  369.000;  377.000
919.023;  106.125;  360.000;  427.000
919.263; 1715.675; 8131.000;  202.000
919.503;  964.825; -137.000;  -54.000
919.743;  516.625;  390.000;  266.000
919.983;  189.000; -134.000;  -26.000
920.223;   82.800;  135.000;   14.000
920.463;  129.750;  631.000;  554.000
920.703;  128.175;   84.000;   39.000
920.943;  159.600; -110.000;   90.000
921.183;  248.900; -414.000; -405.000
921.423;  534.850;  307.000;  546.000
921.663;  753.775; -174.000; -257.000
921.903; 1636.775;  237.000;  173.000
922.143; 9235.125;  372.000;  389.000
922.383;34861.100;  158.000;  115.000
922.622;11186.000; -120.000;  -15.000
922.862; 1205.750;  796.000;  785.000
923.102;  454.200;  -51.000;   33.000
923.341;  190.500;   59.000;   74.000
923.581;   73.600;  450.000;  360.000
923.821;    3.350;  301.000;  398.000
924.060;    7.075;  351.000;  193.000
924.300;  -68.125;  -16.000; -128.000
924.539;  -13.875;  584.000;  473.000
924.779;   12.925;  812.000;  597.000
925.018;  -46.775;  247.000;  353.000
925.257;  -19.675;  595.000;  666.000
925.497;  -28.000;  447.000;  412.000
925.736; -100.925;  -35.000;  102.000
925.975;   -9.300;  687.000;  669.000
926.214;   31.800;  907.000;  850.000
926.454;   27.175;  706.000;  757.000
926.693;  -51.725;  419.000;  543.000
926.932;   40.750; 1021.000;  825.000
927.171;   63.125; 1107.000; 1044.000
927.410;   53.950; 1144.000;  967.000
927.649;    8.575;  924.000;  742.000
927.888;   -7.550;  590.000;  564.000
928.127;  -14.275;  680.000;  678.000
928.366;   33.375;  842.000;  826.000
928.605;   29.600;  831.000;  737.000
928.844;  232.775; 1451.000; 1393.000
929.083;  546.400;  770.000;  613.000
929.321;  313.800; 1335.000; 1359.000
929.560;   65.875; 1158.000; 1122.000
929.799;  -27.900;  574.000;  475.000
930.038;   80.050; 1025.000; 1394.000
930.276;  -52.525;  334.000;  397.000
930.515;  -12.950;  827.000;  681.000
930.753;  -34.600;  614.000;  589.000
930.992;   -6.200;  664.000;  717.000
931.230;   -2.900;  847.000;  847.000
931.469;  162.200; 2162.000;  892.000
931.707;   72.575;  840.000;  751.000
931.946;   65.775; 1278.000; 1344.000
932.184;   48.375; 1437.000; 1175.000
932.423;   44.450; 1265.000;  963.000
932.661;   78.800; 1296.000; 1428.000
932.899;   23.375;  987.000;  821.000
933.137;   22.550;  754.000;  564.000
933.376;  110.675; 1664.000; 1335.000
933.614;  153.775; 1759.000; 1196.000
933.852;   51.800; 1357.000; 1171.000
934.090;  150.625; 1722.000; 1747.000
934.328;  103.325; 1252.000; 1457.000
934.566;  105.325; 1431.000; 1110.000
934.804;  145.750; 1263.000; 1309.000
935.042;  545.675; 1861.000; 1850.000
935.280; 2192.100; 2088.000; 2063.000
935.518; 2007.575; 2113.000; 2007.000
935.756;  388.600; 2481.000; 2316.000
935.994;  161.725; 1808.000; 1751.000
936.231;  346.675; 2890.000; 2950.000
936.469;  193.575; 2367.000; 2378.000
936.707;  161.050; 2220.000; 2167.000
936.945;  238.400; 2825.000; 2882.000
937.182;  200.075; 2679.000; 2741.000
937.420;  290.950; 3602.000; 3031.000
937.657;  390.375; 3365.000; 3478.000
937.895;  356.600; 3331.000; 3488.000
938.133;  302.300; 3540.000; 3528.000
938.370;  340.175; 3896.000; 4191.000
938.607;  396.375; 4488.000; 4205.000
938.845;  532.225; 5587.000; 5549.000
939.082;  492.950; 5387.000; 5177.000
939.320;  539.025; 5799.000; 5728.000
939.557;  625.800; 6549.000; 6491.000
939.794;  727.100; 7285.000; 7097.000
940.031;  911.725; 8421.000; 8368.000
940.269; 1075.725; 9552.000; 9107.000
940.506; 1104.175;10901.000;10507.000

