
Integration time [ms]: 200.000
Averaging Nr. [scans]: 10
Smoothing Nr. [pixels]: 0
Data measured with spectrometer [name]: 2101013U2
Wave   ;Sample   ;Dark     ;Reference
[nm]   ;[counts] ;[counts] ;[counts] 

394.013;  141.927; -450.257; -315.536
394.305;  463.824; -461.258; -419.536
394.596; 1991.051; -676.269; -527.514
394.887; 4735.479; -796.268; -654.518
395.178; 1949.830;  145.736;   11.476
395.470;  163.049; -210.263; -356.526
395.761;  413.904;  305.734;  394.479
396.052;  690.842; -545.284; -306.489
396.343;  658.559; -557.276; -454.503
396.634;  200.407; -200.279; -290.497
396.926;  222.575; -618.268; -565.517
397.217;  227.766;   11.725;  -17.504
397.508;   97.393; -366.273; -154.507
397.799;   84.907; -555.279; -571.497
398.090;    4.397; -973.280; -902.495
398.381;  244.216;   11.708;  -11.473
398.672;  -42.682; -585.292; -742.473
398.963;   96.317; -348.279; -373.498
399.254;  226.434;   54.709; -209.475
399.545;  -51.701;-1017.266; -883.520
399.836;  104.041; -407.277; -343.501
400.127;  119.577; -205.295; -209.468
400.418;  102.184; -423.274; -392.506
400.709;  152.776; -359.281; -333.493
401.000;   98.740; -268.291; -309.476
401.290;  213.671;  225.698;  115.545
401.581;  116.213; -166.286; -228.485
401.872;   22.530; -542.298; -486.462
402.163;  105.564; -313.296; -252.467
402.454;  145.435; -123.291; -163.475
402.744;  123.850; -844.297; -813.465
403.035;  741.002; -226.293;  -86.471
403.326;  917.123; -366.292; -384.474
403.617;  687.221;  204.701;  165.539
403.907;  429.051; -593.283; -679.490
404.198; 4337.794; -545.307; -599.446
404.489;10806.660; -618.283; -588.491
404.779; 3855.676; -618.302; -660.456
405.070;  449.641;  -67.304; -174.451
405.360;  637.405; -259.293; -238.472
405.651;  653.095;  125.699;   98.542
405.942;  389.405;  209.714;  127.516
406.232;  484.030; -432.285; -413.487
406.523;  946.293;  641.706;  758.530
406.813;  181.909; -579.286; -644.484
407.104;  698.915;  261.708;  144.527
407.394;  362.823; -604.299; -591.462
407.685;  322.528;  336.715;  222.513
407.975;  141.657; -400.283; -382.490
408.265;  248.459; -134.289; -190.478
408.556;  151.229; -472.291; -459.475
408.846;  390.795;  474.706;  429.530
409.137;  197.173;   -1.288; -216.480
409.427;  119.429; -193.285; -271.487
409.717;   79.598; -776.273; -692.508
410.007;  259.818;    4.715; -170.486
410.298;  184.281; -360.295; -342.469
410.588;  137.725; -495.285; -510.486
410.878;   50.491; -792.287; -873.482
411.168;  161.134; -481.298; -478.463
411.459;  241.348; -295.283; -242.489
411.749;  122.627; -609.292; -507.474
412.039;   89.070; -755.289; -386.480
412.329;  429.029;   40.722;  132.501
412.619;  383.810;  -62.286; -148.485
412.909;  686.064;  639.711;  594.521
413.199;  592.097; -130.280; -251.495
413.490;  794.748;  521.710;  352.523
413.780;  246.004;-1013.279; -913.496
414.070;  633.761;  -46.276;  235.497
414.360;  656.222; -729.278; -666.498
414.650;  742.485; -726.288; -688.482
414.940;  946.603; -538.280; -441.496
415.230; 1671.880;   50.712;   74.519
415.520;11352.450;  155.730;   66.486
415.809;42077.575; -305.281; -125.493
416.099;33308.944; -388.277; -229.501
416.389; 8992.780;  435.726;  236.494
416.679; 5500.255;   91.738;   85.473
416.969;  969.099; -527.287; -503.483
417.259; 1052.107;  341.721;  171.503
417.549; 1276.973;  522.718;  318.508
417.838; 3030.378; -205.268; -147.518
418.128; 9594.357;  650.710;  492.522
418.418; 8191.509; -491.272; -579.509
418.708; 5583.780;    9.726;  -48.506
418.997;20210.373; -474.275; -480.505
419.287;21077.392; -733.273; -790.507
419.577;20260.847; -160.283; -123.489
419.866;62839.141; -588.277; -498.501
420.156;64099.743; -242.270;  -55.513
420.446;12623.343; -112.263;  -26.526
420.735; 1599.433; -376.271; -446.512
421.025; 1699.521; 1830.722;  315.502
421.314; 1271.630; -203.271; -226.512
421.604; 2616.466;   89.732;  233.484
421.893; 1483.824; -705.271; -602.511
422.183;  467.143; -487.263; -461.526
422.472;  742.226;  -36.271; -107.511
422.762;  827.309; -416.266; -379.521
423.051;  410.261; -916.276; -916.503
423.341;  576.695; -491.273; -439.507
423.630;  757.418; -121.265;   15.477
423.919;  701.572;   58.725;   49.495
424.209;  657.652;  -31.263;   56.473
424.498;  925.874;   68.732;  161.483
424.787; 1898.785; -535.267; -601.518
425.077; 5835.016;   34.735;   29.478
425.366; 8041.061; -734.262; -744.528
425.655;17202.296;  639.727;  259.493
425.945;35583.477; -313.247; -268.554
426.234;20904.800;  117.741;  300.467
426.523; 8935.408;  -86.259; -350.534
426.812;12447.102;  107.734;  159.480
427.101;18026.360; -127.269; -323.515
427.390;22245.950;  -55.270;  -86.514
427.680; 5127.141; -624.257; -411.538
427.969;  936.259; -330.255; -301.540
428.258;  582.727; -385.257; -477.536
428.547;  975.616;  449.728;  397.490
428.836; 2175.586; -421.253; -398.543
429.125; 3058.811; -199.259;  -72.534
429.414; 1467.724; -330.251; -294.548
429.703; 5712.024; -231.251; -213.548
429.992;16253.330; -938.250; -828.549
430.281;10968.831; -397.264; -331.524
430.570; 1151.008;  -21.252;   32.454
430.859; 1134.707;  279.741;  352.466
431.148;  872.570;  636.752;  631.446
431.437;  622.507;  391.748;  367.454
431.725;  297.230; -544.257; -481.536
432.014;  244.498; -845.253; -756.545
432.303;  682.397; -149.239; -105.569
432.592; 1110.642; -460.263; -178.525
432.881; 1892.572; -601.248; -437.554
433.169;10994.960; -343.255;  -61.540
433.458;21636.953;  445.765;  540.424
433.747; 9366.071; -397.261; -289.529
434.036; 1662.657; -275.242; -280.564
434.324; 3673.851; -395.249; -379.551
434.613; 6304.546;   40.757;  159.437
434.902; 2289.980;  333.760;  439.433
435.190; 1077.295;   75.761;  295.431
435.479;  674.315;  -52.245;   83.441
435.767;  227.329; -411.244; -427.561
436.056;  418.849; -340.242; -294.563
436.345;  685.784; -372.240; -223.568
436.633;  777.043;   60.750;  383.450
436.922;  524.588;  208.760;  414.432
437.210; 1183.037; -194.236;    1.426
437.499; 3367.150; -583.235; -432.576
437.787; 3845.636; -339.236;  -10.574
438.075; 1028.704;   56.761;  162.430
438.364; 1346.508;  -44.238;  250.429
438.652;  848.683; -286.226; -138.592
438.941;  290.123;    3.770;  269.415
439.229;   29.603; -665.252; -466.545
439.517;  102.964; -160.234;  -85.577
439.806;   -9.290; -501.225; -290.595
440.094;  451.077;  377.766;  650.421
440.382;  337.783; -653.233; -302.580
440.670;  376.450; -361.235; -285.576
440.959;   57.639; -347.223; -170.599
441.247;  155.742; -151.229; -109.587
441.535;  229.161; -266.235;   31.423
441.823;   52.572; -497.234; -305.578
442.111;  392.550;  173.771;  327.412
442.400;  973.414; -628.245; -335.559
442.688; 2511.276; -111.234; -620.579
442.976; 1782.086; -786.213; -450.617
443.264;  201.121; -324.224; -364.597
443.552;  193.085; -258.226;   51.408
443.840;  361.159;  602.765;  876.423
444.128;  258.382;  265.767;  269.420
444.416;   27.054; -694.228; -312.588
444.704;   76.988; -465.219;  -92.605
444.992;  139.890;   -0.226;  240.407
445.280;  116.125; -517.230;  -94.585
445.568;   64.692; -694.212; -396.618
445.856;  663.162; -174.221;  357.398
446.143; 1327.382;  -54.220;   -7.604
446.431; 1110.460;  -25.228;  625.411
446.719;  522.921;  489.783;  675.391
447.007;  410.115;  481.769;  705.416
447.295;  360.834;  597.777;  871.402
447.583;  188.139; -464.229;  -34.587
447.870;  263.957; -434.221; -202.601
448.158;  724.522; -104.230;  129.415
448.446;  517.684; -800.219; -338.604
448.733;  356.723;   13.776;  269.403
449.021;  475.091;   60.788;  341.382
449.309;  336.616; -296.210;  208.379
449.596;  407.914;  128.783;   59.392
449.884;  263.446; -571.222; -325.600
450.172;  256.369; -756.227; -406.590
450.459;  823.658;  645.786;  780.387
450.747; 4315.312; -411.218; -147.608
451.034;12978.662;  493.772;  889.411
451.322;10865.363; -413.214; -170.614
451.609; 1037.826;  292.777;  508.403
451.897; 1108.121; -550.203; -183.634
452.184; 3059.134; -622.223; -400.598
452.472; 3044.551;   97.792;  269.375
452.759;  698.585;  512.781;  864.395
453.047;  233.487; -407.212; -125.617
453.334;  182.098; -732.219; -216.606
453.621;  182.467; -438.214; -161.615
453.909;  264.208;   13.796;  384.368
454.196;  236.083; -299.199; -123.641
454.483;  471.643;  317.798;  540.364
454.771;  261.657; -215.208;  196.374
455.058;  141.362; -316.207;  102.374
455.345;  241.376;   71.807;  344.347
455.632;  216.568; -128.207;  235.373
455.919;  126.121;  -82.196;  182.354
456.207;  -85.009; -774.198; -450.642
456.494;   -0.037; -475.200;  -66.639
456.781;   55.535; -399.202; -198.635
457.068;  122.479; -253.206;  -29.628
457.355;    7.080; -698.206; -401.629
457.642;   38.990; -552.205; -290.630
457.929;    3.761; -778.194; -417.651
458.216;  107.687; -575.212; -354.617
458.503;  422.869; -173.193;  -19.652
458.790;  395.753; -864.208; -630.625
459.077;  521.744;  -77.202;  110.364
459.364; 1495.849; -350.195; -210.649
459.651; 2911.675;  -46.206;  220.372
459.938; 1399.237; -864.209; -665.623
460.225;  343.049;  132.799;  276.363
460.512;  -76.684; -836.197; -688.645
460.799;  205.610;  -32.218;  320.392
461.086;  142.071; -370.200; -251.640
461.372;  101.092; -509.198; -279.642
461.659;  225.423; -165.196;  108.354
461.946;  157.866; -445.193;  -54.651
462.233;  505.567;  842.800;  888.361
462.519;  648.161; -814.201; -464.639
462.806; 1755.917; -768.197; -497.645
463.093; 1579.901; -445.191;  -66.656
463.380;  -50.430; -920.186; -824.664
463.666;  157.720; -259.197;  -18.646
463.953;  200.540; -406.195; -243.648
464.239;  375.040; -173.195;  -77.648
464.526;  795.358;  413.806;  743.350
464.813;  634.320; -565.190; -304.658
465.099;  681.668;  606.807;  607.348
465.386;  709.874;  903.807;  921.348
465.672;   47.817; -694.197; -522.645
465.959;   88.950; -598.188; -520.662
466.245;   54.675; -468.193; -359.652
466.532;  216.237; -109.195;   63.352
466.818;  157.269; -357.186; -216.664
467.104;   73.036; -488.182; -415.672
467.391;  -13.477; -628.189; -459.658
467.677;   57.275; -289.186;    9.335
467.964;   46.034; -682.189; -471.660
468.250;  185.580; -331.186; -160.665
468.536;  195.625;   90.811;  180.341
468.822;  -38.100; -821.184; -574.668
469.109;  320.071;  351.827;  471.311
469.395;  417.191;  729.808;  787.346
469.681;  421.930;   46.811;  156.341
469.967; 2304.038; -699.188; -382.660
470.254; 4621.451; -494.188; -306.662
470.540; 3097.321; -601.196; -476.646
470.826;  473.655; -488.181; -397.675
471.112;  605.005;  288.816;  113.331
471.398;  204.013; -253.183;  -58.670
471.684;  120.302; -626.177; -447.680
471.970;  -20.939; -918.180; -981.675
472.256;   74.989; -521.192; -441.654
472.542;   46.589; -499.171; -434.691
472.828;   35.930; -743.182; -607.672
473.114;   40.162; -380.166; -283.700
473.400;  100.630; -504.175; -293.684
473.686;   72.273; -452.166; -400.701
473.972;  153.054; -230.174; -131.687
474.258;  -60.129; -925.173; -843.689
474.544;  385.788; -183.178;   -2.679
474.830;  565.332;  -65.175;   45.316
475.116;  866.223; -123.190; -196.658
475.401; 1099.365; -558.180; -467.676
475.687;  386.363; -725.180; -718.676
475.973;   50.743; -673.181; -770.673
476.259;  519.636;  736.825;  764.315
476.544;  652.515; -539.176; -437.682
476.830; 1425.783; -398.172; -322.690
477.116; 1263.213; -430.177; -336.682
477.401;  321.064;  346.820;  358.324
477.687;  -37.570; -289.175; -405.684
477.973;   90.349;   21.819;   28.326
478.258;    2.107; -448.163; -348.706
478.544;  124.988;   21.815;   61.334
478.829;  -71.201; -818.171; -738.692
479.115;  -62.818; -749.172; -651.690
479.401;    8.347; -444.174; -449.686
479.686;   94.262; -253.180;  -74.676
479.972;  -82.003; -886.178; -776.680
480.257;  126.165; -258.166;  -65.700
480.542;   -5.395; -614.170; -469.693
480.828;  561.127; 1288.824; 1392.317
481.113;   -8.977; -464.176; -426.683
481.399;   36.046; -236.161; -202.711
481.684;  -93.936; -620.166; -462.700
481.969;   86.969; -158.159;  -73.713
482.255;    0.623; -439.169; -285.695
482.540;   31.797; -569.178; -441.680
482.825;   50.261; -395.187; -404.663
483.110;  219.428;  -85.169; -105.696
483.396;  345.205; -840.157; -652.718
483.681;  926.854;  543.826;  730.313
483.966;  302.659; -696.160; -700.712
484.251;   42.053; -404.174; -310.687
484.536;   66.481; -356.165; -378.703
484.822;   86.958; -205.173; -218.687
485.107;  -76.431; -599.152; -502.726
485.392;  287.391;  662.836;  541.296
485.677;  193.245;  354.832;  163.302
485.962;  242.501;  160.843;  270.283
486.247;  194.220;  -14.162;   -8.707
486.532;  168.466; -178.166; -325.701
486.817;  327.737;  381.839;  431.291
487.102;  224.640; -453.154; -514.722
487.387; 1190.808; -637.156; -652.718
487.672; 1975.100; -154.164;  -38.705
487.957; 1297.349; -394.160; -286.711
488.241;  402.697; -290.150; -314.729
488.526; 1392.971; -280.152; -148.726
488.811; 2024.700; -881.177; -818.680
489.096; 1579.145; -666.154; -702.723
489.381;  950.765;    3.847;  162.275
489.666;  658.646; -428.161; -510.710
489.950;  382.150;  558.846;  627.277
490.235;  -44.812; -480.151; -458.728
490.520;  -53.856; -756.161; -723.710
490.804;  -77.889; -827.156; -736.719
491.089;   67.523; -469.149; -299.732
491.374;   75.897; -132.164;  -75.704
491.658;   29.142; -817.147; -717.735
491.943;  298.078; -657.152; -609.727
492.227;  480.333; -178.155;  -38.721
492.512;  128.200; -294.157; -341.717
492.797;  -61.787; -713.149; -716.731
493.081;  -88.953; -588.147; -598.735
493.366;  -60.453; -751.161; -635.711
493.650;  424.835;  831.859;  917.254
493.935;   84.041; -648.147; -447.734
494.219;  -80.986; -778.142; -687.743
494.503;  -97.996; -585.150; -487.730
494.788;  122.286;   46.842;   74.285
495.072;  234.599;  184.850;  434.271
495.356;  362.028; -463.148; -343.733
495.641;  805.057; -812.146; -736.736
495.925;  734.720; -976.156; -903.719
496.209;   94.022; -599.149; -451.732
496.494;  -71.785; -763.142; -544.744
496.778;   26.240; -364.154; -360.722
497.062;  -94.181; -819.156; -627.719
497.346;  -32.248; -869.160; -640.711
497.631;  318.734;  580.852;  560.266
497.915;  195.775;  -64.145;  175.261
498.199;  140.005; -341.157; -277.718
498.483;   99.268; -562.152; -508.725
498.767;  425.701;  301.850;  300.271
499.051;  382.318; -126.149; -100.732
499.335;   47.315; -693.149; -739.731
499.619;  -38.096; -381.129; -423.767
499.903;   85.731; -272.155;  -65.721
500.187;  103.552; -588.153; -316.724
500.471;   49.477; -796.152; -595.727
500.755;  210.745;   62.839;  -96.710
501.039;   74.832; -270.155; -357.721
501.323;  207.638;  -21.141;  264.254
501.607;   59.107; -447.163; -503.706
501.891;    9.707; -607.156; -512.718
502.174;  -63.806; -726.144; -585.741
502.458;  189.583;   89.849;  370.273
502.742;  115.978; -180.138; -191.751
503.026;  215.340; -412.147; -254.734
503.310;  321.867; -437.159; -375.713
503.593;  244.243; -464.147; -325.735
503.877;  236.545; -232.133; -156.760
504.161;  377.356;    2.847;  -50.724
504.444;  257.390; -841.158; -710.716
504.728;  863.596; -487.164; -522.704
505.012; 1263.095; -257.150;  -76.729
505.295;  987.247; -417.161; -212.711
505.579; 1006.219; -256.156; -496.719
505.862; 1351.969; -555.145; -333.738
506.146; 1203.071; -681.159; -758.714
506.429;  749.772;  568.841;  461.286
506.713;  157.591; -732.151; -667.728
506.996;  644.439;   90.846;  295.278
507.280;  541.188; -633.165; -474.703
507.563;  427.929; -469.155; -261.721
507.847;  196.654; -423.153; -112.724
508.130;  182.748; -665.161; -456.711
508.413;  209.857; -758.167; -577.700
508.697;  446.658; -151.167;   12.300
508.980;  262.256; -422.153; -312.724
509.263;   13.323; -466.155; -450.720
509.547;   79.695; -124.150;   82.271
509.830;  124.251; -172.160;  140.289
510.113;  200.418;  128.844;  298.281
510.396;   89.765; -530.152; -300.725
510.680;  296.071; -818.145; -812.738
510.963; 1151.247;  184.846;  180.277
511.246;  965.008; -493.150; -357.730
511.529;  467.979; -482.145;  -83.739
511.812;  651.239; -250.134;   10.241
512.095;  481.586; -740.151; -396.728
512.378;  165.950; -317.147; -245.736
512.661;   60.391; -703.137; -623.753
512.944;   39.317; -750.142; -637.744
513.227;  173.086; -170.137; -171.752
513.510;   70.294; -479.144; -671.741
513.793;  110.145; -485.140; -435.747
514.076;  278.439;  -43.127;  -39.771
514.359;  213.923; -294.149; -135.732
514.642;  185.122; -442.142; -567.744
514.925; 1469.343;  581.860;  561.253
515.208; 1634.933; -498.134; -443.758
515.491; 1208.557; -276.133; -182.761
515.773;  696.800; -410.143; -337.742
516.056; 3727.301;  249.864;  409.246
516.339; 4714.408; -754.136; -652.755
516.622; 3503.504; -518.150; -488.730
516.904; 2315.811;  882.857;  975.257
517.187; 1011.584; -730.138; -523.752
517.470;  769.810; -568.143; -510.743
517.752;  762.913; -624.136; -470.756
518.035;  619.563; -708.139; -725.749
518.318;  743.008; -799.136; -744.755
518.600; 4254.962; -300.132; -325.762
518.883; 5548.521;  310.858;   88.256
519.165; 2814.672; -585.138; -426.751
519.448;  700.062;  -61.132;  -19.762
519.730;  393.051; -573.126; -415.773
520.013;  624.050;  588.867;  664.240
520.295; 1583.942;  -94.134;  -15.759
520.578; 3344.184; -335.131; -305.764
520.860; 3717.362; -254.132;   56.238
521.143; 1952.116; -763.135; -584.756
521.425;  869.073; -251.125; -279.775
521.707; 1270.839; -622.127; -380.771
521.990; 3209.340; -199.127;  167.229
522.272; 3450.148; -116.140;   -4.748
522.554; 1660.901; -237.143; -157.742
522.836;  649.839;  -24.134;   99.241
523.119;  424.538; -496.148; -189.734
523.401;  341.095; -448.130; -314.766
523.683;  125.892; -865.137; -693.753
523.965;  575.780;  408.862;  260.248
524.247;  486.108;   54.878;  170.220
524.529;  368.142; -451.134; -367.759
524.812;  691.798;   -3.130;  191.234
525.094; 1541.579; -773.138; -631.751
525.376; 2326.988; -143.124;   78.223
525.658; 1487.303; -441.136; -339.754
525.940;   27.278; -805.131; -671.764
526.222;   87.309; -188.136;  -88.755
526.504;  232.875; -190.131;   32.237
526.786;  377.646; -960.133; -647.760
527.068;  583.197; -124.123;  -67.778
527.349;  289.198; -865.137; -774.754
527.631;  293.962; -137.132;   22.238
527.913;  258.938; -664.127; -450.771
528.195;  288.761; -761.125; -639.774
528.477;  467.734;  -93.134;  -30.758
528.759;  245.298; -648.130; -522.766
529.040;   83.795; -569.123; -293.778
529.322;  143.566; -235.125;  -10.774
529.604;  252.302;  -47.130;   93.233
529.886;  254.351; -546.126; -302.773
530.167;  257.988;  232.870;  192.235
530.449;  124.649;    1.853;   63.265
530.731;   47.607; -572.122; -459.779
531.012;  120.641; -513.120; -216.784
531.294;  159.007; -118.116;  -43.792
531.575;  299.573;  290.875;  538.225
531.857;  109.625; -548.135; -266.757
532.138;  270.036; -113.141;   40.254
532.420;  351.119;  294.865;  403.244
532.701;  360.650; -722.133; -751.760
532.983;  674.655;  232.867;  182.239
533.264;  288.948; -243.126;  175.228
533.546;  -42.191; -491.136; -508.755
533.827;  107.845;  173.867;   -1.759
534.109;   97.825; -352.135;  -80.757
534.390;  150.368; -725.132; -582.762
534.671;  436.019; -270.135;  -82.756
534.953;  253.300; -751.123; -611.779
535.234;   70.682; -426.117; -255.789
535.515; -129.145; -891.119; -735.785
535.796;   -4.669; -431.128; -193.770
536.078; -186.113;-1050.124; -904.777
536.359;   41.301;  -22.123;    3.221
536.640;    5.264; -480.125; -197.774
536.921;  361.911;  225.871;  143.232
537.202;  667.974;  -87.138;  -16.751
537.483;  844.983;  251.869;  377.236
537.764;  341.988;   17.870;   98.235
538.045;  -73.368; -543.134; -371.758
538.326;  -47.987; -596.129; -447.768
538.607;   50.241; -686.127; -476.771
538.888;  321.526;   98.879;    5.218
539.169;  356.517; -704.122; -535.781
539.450;  622.309;  236.871;   16.233
539.731;  383.433; -361.121; -182.783
540.012;  253.941;  199.880;  412.216
540.293;  183.978;   82.876;  158.224
540.574;   41.941; -895.113; -717.796
540.855;  883.431;  435.879;  377.218
541.136;  915.013;   47.878;  139.220
541.416;  543.199; -161.130; -220.766
541.697;  405.975; -274.131; -170.763
541.978; 1929.122; -270.135; -315.757
542.259; 2235.341; -211.127; -236.771
542.539; 1156.996; -191.116; -186.790
542.820;  407.572;  461.875;  480.225
543.101;  231.374;  -52.145;  -77.738
543.381;   36.740; -638.127; -591.771
543.662;  528.536;  159.873; -254.771
543.942; 1006.933; -751.127; -830.770
544.223; 1872.216;  193.878;  161.219
544.504; 1201.087; -275.124; -182.777
544.784; 1136.951; -592.126; -408.773
545.065; 2969.903;  104.884; -254.791
545.345; 3402.056;  227.881;   14.215
545.626; 2362.940;  -14.113; -108.796
545.906; 1520.587;   77.869;   98.235
546.186;  681.258;   92.874;  -95.773
546.467;  394.791;   99.877;  -95.778
546.747;  601.796;  264.884;  327.210
547.027;  731.085;   91.876;  111.223
547.308;  572.232; -376.127; -530.770
547.588;  694.015;  299.871;  371.232
547.868;  431.889;  458.870;  588.235
548.149;  439.215;  609.885;  593.207
548.429;  240.738; -347.127; -299.771
548.709;  337.241; -645.120; -461.784
548.989;  871.272;   84.882;   88.213
549.269; 3936.759;   10.868;  139.239
549.550; 8267.598;  215.877;  117.222
549.830; 7319.370; -758.111; -556.799
550.110; 1572.782; -468.110; -320.801
550.390; 1525.807; -128.122;  -56.779
550.670; 1957.333; -868.114; -783.795
550.950; 1441.830; -509.121; -471.782
551.230;  390.124;  549.879;  460.218
551.510;   46.528; -381.121; -326.782
551.790;   87.895; -173.109; -127.803
552.070;  564.291;  940.877; 1181.223
552.350;  737.262; -492.119; -377.786
552.630; 1062.620;   -2.121;   77.219
552.909;  618.404;  181.884;   73.209
553.189;  473.470;  -49.132;   33.237
553.469;  338.262; -703.119; -514.786
553.749;  377.343; -469.127; -357.772
554.029;  324.689;   33.883;  -24.790
554.308;  296.522; -154.115;  -37.794
554.588;  127.330; -196.128; -204.770
554.868;  144.031; -366.121;  -47.782
555.147;  291.117; -114.115;  -46.793
555.427; 1166.007; -260.116; -250.792
555.707; 6853.414; -284.115; -200.793
555.986; 7854.575; -719.111; -538.800
556.266; 4340.494;   23.884;   72.210
556.546;  243.828; -888.121; -675.782
556.825;  481.629; -657.114; -556.794
557.105; 3203.926; -125.128;   17.230
557.384; 3425.502;  122.884;  187.209
557.664; 1379.606; -717.116; -508.792
557.943;  219.630; -557.121; -411.782
558.222;  356.877; -345.118; -344.788
558.502;  497.320; -116.115;  -76.793
558.781;  856.012;  194.885;  499.208
559.061;  716.976; -232.118; -227.788
559.340;  596.485;  302.883;  353.211
559.619; 1307.594;   93.884;  148.210
559.899; 1781.388; -239.117; -266.789
560.178; 1684.619; -778.115; -593.793
560.457; 5696.890; -623.117; -562.790
560.736; 7254.477; -472.111; -482.800
561.015; 5002.123; -500.128; -502.769
561.295;  712.528;  180.893;  215.193
561.574;  632.015;  119.885;  116.207
561.853;  888.802;  274.891;  303.197
562.132;  947.923;  -45.114;  182.206
562.411;  808.220;  396.879;  553.219
562.690;  235.612; -592.115; -458.792
562.969;  322.152;  472.888;  630.203
563.248; 1025.017; 2966.878; 2487.219
563.527;  504.676; -290.111; -408.800
563.806;  688.538; -650.127; -521.771
564.085;  723.354; -297.105; -206.810
564.364;  434.493; -594.117; -405.790
564.643;  954.021; -276.121; -223.781
564.922; 3298.492;  221.890;  397.198
565.201; 3100.398; -640.109; -700.803
565.479; 1484.110; -297.115; -219.792
565.758;  575.027; -810.128; -712.770
566.037;  776.800; -155.109; -100.803
566.316;  435.902; -286.116;  -28.791
566.595;  158.414;  -17.115;  -12.793
566.873;  228.880; -166.111;  -79.801
567.152; -103.149; -490.113; -590.797
567.431;   54.295; -113.116;    6.210
567.709;   66.229; -344.107; -212.807
567.988;  480.429; -810.114; -769.794
568.266;  956.614; -160.115;  -68.793
568.545;  694.732; -644.100; -514.819
568.824; 1147.808;  160.885;  356.208
569.102;  894.828; -351.114; -235.794
569.381;  384.907; -492.116; -407.792
569.659;  -58.155; -553.113; -553.796
569.938;  106.414; -743.122; -465.780
570.216;  212.205; -225.109; -225.804
570.494;  -45.166; -632.114; -572.795
570.773;  127.328;  202.879;  114.218
571.051;   45.996; -373.123; -357.778
571.330;  150.641; -221.113; -174.796
571.608;  101.162; -181.098; -173.823
571.886; -127.333; -671.111; -581.799
572.164;  -92.569; -739.121; -621.782
572.443; -108.040; -562.105; -512.811
572.721;  -36.309; -399.117; -289.790
572.999;  -34.720; -280.117; -168.788
573.277;  233.149;  379.894;  620.191
573.555;  577.853;   94.894;   37.190
573.834; 2293.579;  -86.117; -114.788
574.112; 2590.533;  880.893;  811.193
574.390;  878.878; -143.111;  -96.801
574.668;   80.053;  -91.112;  -61.797
574.946;    1.253; -165.106; -187.810
575.224;   48.498;   71.891;  -16.803
575.502;    5.698; -200.116; -204.791
575.780; -151.545; -767.112; -829.798
576.058;  542.877; 1589.889; 1004.200
576.336;    3.286; -210.110; -129.801
576.614;  -55.645; -511.112; -340.798
576.891;  112.721; -711.115; -823.794
577.169;  858.018; -158.108; -285.805
577.447; 1006.332;  169.893;  202.193
577.725;  552.062;  629.888;  854.201
578.003;   36.359;  -71.112; -371.798
578.280;  229.375; -208.104; -242.812
578.558;  129.520; -450.115; -422.793
578.836;  279.233; -210.114; -145.795
579.114;   51.852; -630.112; -670.797
579.391;  160.282;   -6.117;  -18.789
579.669; -136.777; -595.114; -704.794
579.947;  352.927; -326.107; -127.806
580.224;  495.926; -692.107; -524.806
580.502;  589.733;  127.893;   76.193
580.779;  101.392;  -42.117;   75.210
581.057;  -94.695; -584.109; -470.804
581.334; -165.800; -726.102; -695.815
581.612;  141.954;   54.895;  511.190
581.889;  -12.678;  -83.101; -129.818
582.167;  -27.055; -298.099; -190.821
582.444; -182.887; -845.102; -814.817
582.721;  257.614;  657.899;  715.183
582.999;  116.541; -326.100; -167.821
583.276;  937.503; -812.123; -713.779
583.553; 1184.705; -364.102; -294.816
583.831;  424.169; -607.104; -631.812
584.108;  164.714;  349.892;  174.195
584.385;   33.499; -122.102;  -98.815
584.662; -125.220; -651.111; -828.801
584.940;  124.679;  204.889;  204.199
585.217;   -6.356;  -73.113; -303.796
585.494;  110.194;   71.890;  118.198
585.771;  379.707; -250.109; -354.804
586.048;  848.744; -196.113;  -76.796
586.325;  505.784; -721.110; -773.801
586.602;  243.076;  230.896;  213.188
586.879;  -31.965; -499.100; -580.820
587.156;  131.456; -156.105; -331.810
587.433;  -52.991; -701.102; -667.817
587.710;  189.156;  152.888;  234.202
587.987;  590.264; -264.105; -236.811
588.264; 1413.259;  315.888;  387.202
588.541; 2501.080;  -61.104;   26.187
588.818; 4627.510;   72.892;  171.196
589.095; 3996.772; -163.104; -174.812
589.371;  655.503; -459.109; -414.804
589.648;   40.433; -581.107; -437.807
589.925;   68.435; -517.114; -621.795
590.202;   37.655; -741.112; -607.798
590.478;  191.467; -166.105;  -73.811
590.755;  520.420; -241.108; -132.806
591.032; 4372.388; -741.110; -699.802
591.308; 5622.029; -732.094; -790.831
591.585; 3052.787; -573.110; -560.802
591.862;  199.612;-1056.102; -950.817
592.138;  157.516; -475.108; -474.805
592.415;  294.977; -486.104; -495.813
592.691; 2728.973;  460.896;  518.188
592.968; 3134.765; -208.098; -123.824
593.244; 1580.496; -695.116; -595.790
593.521;  154.312; -105.102;  -42.817
593.797;  -14.691; -810.122; -720.780
594.074;  616.086; -611.096; -588.826
594.350; 1158.005;  828.905;  729.172
594.626;  559.281; -303.111; -283.801
594.903;  219.613; -643.101; -645.817
595.179;  387.383;  243.896;  418.187
595.455;   83.735; -136.107; -150.807
595.731;   55.886;  -19.103;  -38.814
596.008;  -35.429; -464.111; -434.800
596.284;   86.439; -187.100; -242.820
596.560;  135.039; -501.093; -493.833
596.836;  408.859; -173.105;  -70.810
597.112;  630.518; -582.108; -437.805
597.388;  479.883;  -49.097;  -48.826
597.665;  298.948;  437.887;  530.203
597.941;  -97.512; -572.089; -658.839
598.217;   50.093; -323.110; -293.802
598.493;  525.409;   61.891; -204.804
598.769;  801.530; -175.100;  -50.819
599.045;  510.022; -490.108; -562.806
599.321;  128.637; -193.100; -261.820
599.597;  265.008; -355.109; -476.804
599.872;  898.979;  409.896;  429.187
600.148;  603.585;  -61.097; -172.826
600.424;  559.230;   91.893;  202.193
600.700;  403.134; -170.107; -280.807
600.976;  191.376; -442.097; -464.825
601.252;  448.202; -226.109; -272.803
601.527;  338.681; -833.104; -840.813
601.803;  258.868; -453.105; -404.812
602.079;  365.430; -124.100; -118.819
602.354;  976.156; -620.092; -531.835
602.630; 1386.544; -140.113; -482.796
602.906; 4284.822; -910.101; -863.818
603.181;11106.862; -627.119; -534.786
603.457; 9539.181;   98.903; -278.826
603.733; 1499.434; -605.120; -626.783
604.008; 1876.854; -245.106; -164.810
604.284; 5105.716; -636.101; -580.817
604.559; 4481.062;   -3.112;  -42.799
604.835;  882.259; -163.105; -225.810
605.110;  754.546; -732.099; -892.821
605.385; 1222.544;  224.907;  267.167
605.661; 1194.109; -625.095; -729.829
605.936; 1892.323; -664.108; -737.806
606.211; 1730.297;  -17.103; -170.815
606.487;  372.126; -329.114; -376.794
606.762;   28.962; -791.119; -745.786
607.037;  -32.941; -501.105; -433.810
607.313; -102.102; -589.096; -574.828
607.588;   33.153; -375.106; -137.810
607.863;   94.021;  -28.101; -143.818
608.138;  377.891;  513.890;  516.198
608.413;   59.753; -576.099; -592.822
608.688;  106.017; -203.108; -267.805
608.964;  341.544; -509.106; -218.809
609.239;  407.554; -107.105; -212.810
609.514;  487.368;  281.895;  240.188
609.789; 1154.775; -187.104; -716.812
610.064; 1427.096; -435.096; -609.827
610.339; 1541.603; -855.109; -799.804
610.614; 1928.138; -131.100; -315.820
610.889; 1179.468;  215.895;  107.188
611.163;   72.769; -407.104; -591.812
611.438;  175.528;   81.886; -167.794
611.713;   26.316; -467.101; -499.817
611.988;  113.219; -144.101; -328.818
612.263;   -1.700; -771.102; -717.815
612.538;  416.443;  385.887;  251.204
612.812;  283.640; -832.100; -911.820
613.087;  240.761; -358.098; -338.823
613.362;  -62.366; -497.107; -557.807
613.637;  105.890;  261.897;  138.186
613.911;  -17.743; -256.092; -345.835
614.186;  240.432; -249.107; -292.807
614.460; 1124.614; -842.081; -758.854
614.735; 1307.427;  -55.087;  -17.843
615.010;  304.010;   43.912;  -82.841
615.284;  519.116;  360.892;  246.195
615.559;  599.455; -792.092; -955.835
615.833;  543.350;  -76.099;  -87.822
616.108;   30.575; -225.090; -390.837
616.382;  313.630;  274.913;  402.156
616.656;  294.075; -241.090; -232.837
616.931;  875.450; -785.099; -700.822
617.205; 1790.082; -973.104; -979.813
617.480; 1626.769;  -91.125;    6.225
617.754;  261.465; -396.125; -128.774
618.028;   65.316; -369.129; -382.768
618.302;  165.913;   73.892;  -25.805
618.577;  -51.608; -371.103; -518.815
618.851;  -89.303; -399.109; -600.803
619.125;  -89.358; -335.134; -378.759
619.399;  -36.518; -244.104; -374.813
619.673;  -56.391; -330.115; -515.792
619.947;  -76.567; -333.114; -448.795
620.222;   11.182; -198.110; -204.801
620.496;   -1.669;  -47.121;  -96.782
620.770;   58.717; -187.122;  -93.781
621.044;  426.256;  323.895;  346.190
621.318; 1247.735; -653.120; -614.783
621.592; 1113.432; -430.121; -409.783
621.866;  621.064; -476.112; -572.799
622.140;   73.398; -207.116; -356.791
622.413;  149.671;  138.889;  112.200
622.687;  -43.584; -746.101; -492.817
622.961;   80.014; -130.108; -143.805
623.235;  -99.828; -633.111; -661.800
623.509; -161.733; -816.105; -848.811
623.783;   28.528;  -12.107;   48.193
624.056;    2.037; -254.120; -280.783
624.330;  156.553;   63.888;   -3.797
624.604;  116.493; -271.116; -355.790
624.877;  125.989;  180.890;   26.198
625.151;  135.024; -249.114; -238.794
625.425;  -48.715; -150.103; -283.814
625.698;  -72.747; -367.119; -374.785
625.972; -173.607; -799.110; -765.802
626.245;  199.696;  685.884;  484.210
626.519;  -56.056; -426.120; -340.784
626.792;  -15.966; -192.107; -380.807
627.066; -128.895; -485.122; -662.779
627.339; -149.813; -736.110; -663.802
627.613;  142.242;  351.880;  148.216
627.886;  134.296;  187.891; -612.803
628.160;   -2.865;  312.880; -161.783
628.433; -166.326; -695.125; -703.775
628.706; -138.456; -517.120; -615.784
628.979;  121.685;  296.876;  117.223
629.253; -155.139; -785.119; -833.786
629.526;  666.448; -334.126; -253.772
629.799;  527.997; -641.123; -479.778
630.072;  292.518; -497.128; -516.769
630.346; -112.004;-1115.116;-1080.790
630.619;  764.136; -467.107; -545.808
630.892; 1140.673;  709.889;  593.200
631.165;  698.382;  790.896;  679.187
631.438; -155.941;-1092.112;-1055.798
631.711;  142.402;  453.877;  257.221
631.984;  -71.512; -523.117; -624.789
632.257; -126.318; -636.117; -681.789
632.530;  -77.747; -412.119; -433.785
632.803;  114.721; -109.115;    7.207
633.076; -101.209; -360.123; -422.777
633.349;   35.625;  173.872;  121.231
633.622;  -33.249; -187.119; -240.785
633.895; -204.963; -903.120; -823.783
634.167; -103.849; -496.126; -525.773
634.440;   38.806;  -19.116; -137.792
634.713;   23.959;  -22.119; -120.786
634.986;  197.108;  593.871;  453.233
635.258; -131.482; -507.115; -597.793
635.531;  226.076;  742.882; -343.788
635.804;  -48.314; -303.117; -318.789
636.077; -148.900; -830.116; -852.791
636.349;  -23.785; -586.115; -474.793
636.622;  786.647; 1695.874; 1392.228
636.894;  405.445; -474.120; -909.784
637.167;  228.337; -836.127; -789.771
637.439;   72.031; -278.128; -213.770
637.712;  -55.350; -312.126; -293.772
637.984; -156.899; -635.116; -707.791
638.257;  780.492;  515.877;  488.222
638.529;  946.675; -881.125; -924.776
638.802;  446.718; -508.128; -449.769
639.074; -185.885; -927.122; -952.781
639.346; -225.672; -942.135; -930.757
639.619;   32.719;  -79.142; -319.744
639.891;   45.405;  -83.122; -168.779
640.163; -135.392; -689.122; -756.780
640.435;  108.611;  273.878;  103.220
640.708;   58.614;  -72.122; -132.780
640.980;  -19.983; -366.122; -362.781
641.252;  447.620;  -25.121;  -71.781
641.524; 3258.523;  580.879;  573.219
641.796; 3037.926;-1094.121; -907.782
642.068;  647.030; -191.121; -300.782
642.340;  -72.767; -486.121; -566.783
642.613;  130.936;  294.880;  323.217
642.885; -184.261; -787.120; -878.783
643.157;  -49.858; -810.120; -658.784
643.428;  144.745;  170.880;  218.216
643.700; -101.052; -498.120; -425.784
643.972;  -45.249;  -16.119; -133.785
644.244; -118.946; -474.119; -559.785
644.516;  -84.043; -250.119; -114.786
644.788;  169.460;  662.881;  548.214
645.060;   -3.037;  -12.119; -124.786
645.332; -142.534; -525.118; -535.787
645.603;  120.569;  479.882;  342.213
645.875;  -86.828; -334.118; -369.787
646.147;  377.875; 1487.882; 1242.212
646.418;  -90.922; -931.117; -918.788
646.690;  226.381; -714.117; -715.789
646.962;  101.684; -413.117; -451.789
647.233;   11.987;   15.883;   11.211
647.505; -154.010; -595.117; -475.790
647.776;  102.694;  328.884;  229.210
648.048;   11.497; -248.116; -418.790
648.320; -117.300; -752.116; -679.791
648.591; -241.097;-1055.116; -958.791
648.862; -129.694; -505.116; -577.792
649.134;   99.409;  115.885;  198.208
649.405;  -61.788; -661.115; -618.792
649.677;  -69.485; -475.115; -598.793
649.948;   47.418; -181.115; -296.793
650.219;   37.221;  -37.115; -147.793
650.491; -129.176; -431.114; -520.794
650.762; -186.573; -705.114; -731.794
651.033; -108.470; -437.114; -424.795
651.304; -146.967; -743.114; -728.795
651.576; -117.664; -680.114; -645.795
651.847;  -19.661; -250.113; -140.796
652.118;  -22.558;  -32.113; -189.796
652.389; -160.555; -639.113; -722.796
652.660;  -21.352; -147.113;  -89.797
652.931; -229.449; -897.112; -871.797
653.202; -125.246; -382.112; -541.798
653.473;  -98.442; -633.112; -533.798
653.744;  285.461; -595.112; -590.798
654.015;  259.264; -356.112; -303.799
654.286; -101.033; -642.111; -663.799
654.557;  -89.230; -586.111; -521.799
654.828; -275.727;-1114.111;-1088.800
655.099; -103.124; -404.111; -291.800
655.370; -148.621; -427.111; -543.801
655.641; -166.418; -656.110; -714.801
655.911; -151.315; -618.110; -638.801
656.182;  172.188;  437.890;  387.198
656.453;  261.991;  830.890;  746.198
656.724;  -71.206; -466.110; -426.802
656.994; -138.203; -553.109; -568.803
657.265; -188.200; -862.109; -873.803
657.536; -123.797; -500.109; -377.804
657.806; -167.394; -561.109; -593.804
658.077; -234.891; -866.109; -950.804
658.347; -118.088; -523.108; -598.805
658.618; -178.385; -646.108; -694.805
658.888;   -1.482;  -41.108;  112.195
659.159; -113.779; -432.108; -548.806
659.429;  -11.275; -292.108; -349.806
659.700;   57.628; -435.107; -390.807
659.970;   -1.469; -370.107; -359.807
660.241;   52.334; -754.107; -921.807
660.511;  837.537; -147.107; -174.808
660.781;  168.740; -793.106; -748.808
661.052;  -53.257; -222.106; -381.808
661.322;   -5.054;   21.894;   -9.809
661.592;  116.349;  257.894;  148.191
661.862;  -85.848; -369.106; -382.810
662.133; -135.945; -551.105; -502.810
662.403; -227.042; -770.105; -676.810
662.673;  -54.639; -256.105; -213.811
662.943; -178.836; -612.105; -551.811
663.213;   31.467;  -85.105;  -81.811
663.483; -142.030; -593.104; -568.812
663.753;  -42.127; -194.104; -152.812
664.023;    3.276;   68.896;  -32.813
664.293;  -66.221; -319.104; -126.813
664.563; -166.618; -694.104; -648.813
664.833; -196.715; -743.103; -608.814
665.103; -218.711; -730.103; -793.814
665.373; -177.408; -766.103; -806.814
665.643; -177.105; -863.103; -918.815
665.913;  104.798; -534.103; -714.815
666.182;  222.001; -685.102; -719.816
666.452;  484.404;  -22.102;  -89.816
666.722;  -75.393; -724.102; -784.816
666.992; -240.690; -948.102; -921.817
667.261; -142.387; -824.102; -808.817
667.531;  462.316;  134.899;   45.183
667.801;  932.019; -440.101; -412.818
668.070;  521.422;  714.899;  697.182
668.340; -178.175; -883.101; -840.819
668.609;  223.728;  588.900;  301.181
668.879; -111.069; -490.100; -558.819
669.149;  -77.366; -539.100; -516.820
669.418; -186.563; -698.100; -726.820
669.688;   -3.360; -482.100; -666.820
669.957;  161.843; -423.099; -546.821
670.226;  -22.254; -268.099; -331.821
670.496; -140.651; -431.099; -635.822
670.765; -114.047; -418.099; -501.822
671.034; -238.444; -872.099; -828.822
671.304;   24.959;   55.902; -111.823
671.573; -283.538;-1085.098; -957.823
671.842;  175.265; -380.098; -294.823
672.112;   39.668; -692.098; -586.824
672.381;   42.271; -239.098; -214.824
672.650; -222.526;-1005.097;-1021.825
672.919; -181.123; -631.097; -507.825
673.188; -175.920; -681.097; -878.825
673.457; -274.717;-1101.097;-1143.826
673.726; -122.614; -579.096; -646.826
673.995;  -60.811; -533.096; -479.826
674.265;    1.792; -263.096; -333.827
674.534;   96.895; -183.096; -235.827
674.802;   20.798; -618.096; -703.828
675.071; 1871.601; -886.095; -801.828
675.340; 6148.004; -464.095; -339.828
675.609; 2188.107;  103.905;   82.171
675.878;  129.310; -949.095; -893.829
676.147;  105.713;  -26.095;   -8.829
676.416;  187.017; -210.094; -294.830
676.685; 1319.920; 1000.906; -622.830
676.953;  169.723; -603.094; -452.831
677.222;  -10.174; -193.094; -273.831
677.491;   20.229;  -24.094; -127.831
677.759;   48.532;   11.907;  172.168
678.028;    9.235; -279.093; -222.832
678.297;   42.638;   71.907;  197.168
678.565; -248.459; -898.093; -944.833
678.834;  -83.956; -311.093; -268.833
679.102;  -98.853; -411.092; -391.834
679.371; -227.750; -898.092; -727.834
679.639; -205.547; -797.092; -786.834
679.908; -233.244; -794.092; -724.835
680.176; -262.341; -895.091; -941.835
680.445; -110.038; -346.091; -352.835
680.713;   29.765;  -58.091;  -23.836
680.982; -134.532; -523.091; -525.836
681.250; -131.929; -578.091; -507.837
681.518; -136.426; -534.090; -751.837
681.787;   30.877; -204.090; -167.837
682.055;  -94.219; -490.090; -422.838
682.323; -244.316; -993.090; -992.838
682.591;   74.087; -216.090; -538.838
682.859;  201.190;    9.911;  -35.839
683.128;   94.493;  232.911;  497.161
683.396; -302.704;-1102.089;-1122.840
683.664;   -9.701; -241.089;   21.160
683.932;   56.802;  144.911;  -76.840
684.200; -100.095; -576.088; -320.841
684.468;  -10.192;  -73.088; -124.841
684.736;  -17.489; -214.088; -175.841
685.004; -232.086;-1024.088; -982.842
685.272;  -73.583; -880.088; -774.842
685.540; -101.380; -499.087; -557.843
685.808; -111.877; -651.087; -682.843
686.076; -189.174; -894.087; -969.843
686.343;  -94.371; -601.087; -815.844
686.611;  111.432; -195.087; -224.844
686.879;  928.735; -530.086; -553.844
687.147; 5398.138; -483.086; -480.845
687.414; 1586.141;  -12.086; -169.845
687.682;   13.445; -658.086; -757.846
687.950;  601.848;  259.915;  263.154
688.217;   15.551; -792.085; -760.846
688.485;   20.554; -632.085; -636.847
688.753;  922.257;  -11.085; -102.847
689.020;  269.760; -820.085; -851.847
689.288; -171.737; -853.084; -787.848
689.555;   -2.534; -195.084; -148.848
689.823;  -37.831; -241.084; -345.849
690.090; -106.828; -546.084; -651.849
690.358; -263.625; -877.084; -897.849
690.625;   41.878;  120.917;   45.150
690.892; -118.519; -403.083; -369.850
691.160;   30.584;   72.917;  -35.850
691.427;   60.787;  141.917;  130.149
691.694; -224.610; -855.083; -929.851
691.962; -256.707;-1177.082;-1060.852
692.229;   41.796;  127.918;   56.148
692.496;  195.199;  130.918;  -49.852
692.763;   80.502; -164.082; -201.853
693.031;  -92.995; -739.082; -716.853
693.298;  -45.491; -509.081; -368.853
693.565;  623.412; -155.081; -163.854
693.832; 2115.515;   -5.081;   -9.854
694.099;  241.518; -643.081; -642.855
694.366;  -55.879; -882.081; -896.855
694.633;  -45.076; -920.080; -633.855
694.900; 1589.027; 4367.920; -114.856
695.167;  746.630; -214.080; -380.856
695.434;  223.433; -646.080; -623.856
695.701;  407.136;  121.921;  -61.857
695.968;  824.339; -365.079; -361.857
696.234; 2051.442; -415.079; -646.858
696.501;18793.945; -776.079; -614.858
696.768; 9078.448; -554.079; -617.858
697.035;  671.651; -632.078; -667.859
697.302;  101.254; -448.078; -552.859
697.568;  112.357; -458.078; -497.859
697.835;    4.460; -683.078; -624.860
698.102;   -5.537; -498.078; -407.860
698.368;  216.966;  384.923;  396.139
698.635;    4.069;  -47.077; -424.861
698.901;   11.572; -240.077; -348.861
699.168;  156.176; -534.077; -456.862
699.435;  172.879;  -72.077;  -13.862
699.701; -188.218; -868.076; -764.862
699.968;  -55.415;  144.924; -441.863
700.234; -161.012; -783.076; -822.863
700.500;  -92.609; -448.076; -539.864
700.767;   39.394;   -1.075;   26.136
701.033; -202.103;-1015.075; -963.864
701.299;  -60.600; -450.075; -483.865
701.566;  310.503;  950.925;  763.135
701.832;   95.206;  -31.075;  -76.865
702.098; -165.791;-1054.074;-1034.866
702.365; -144.488;-1098.074;-1030.866
702.631;  -45.885;-1038.074;-1063.867
702.897; 2464.118; -765.074; -676.867
703.163; 3799.721;  348.926;  254.133
703.429;  293.224; -256.073; -273.868
703.695;  -66.973; -796.073; -792.868
703.961;   83.130; -214.073; -210.868
704.227;  -49.167; -630.073; -725.869
704.493;  315.936;  613.927;  510.131
704.759;  -10.860; -565.072; -540.870
705.025;  130.143; -203.072; -194.870
705.291;   10.646; -666.072; -562.870
705.557;  453.749;  719.928;   34.129
705.823;   88.252; -742.072; -694.871
706.089;  298.255; -307.071; -326.871
706.355;  737.458; -315.071; -244.872
706.620;11115.761; -776.071; -729.872
706.886;13793.764; -309.071; -362.873
707.152; 1341.167; -818.070; -973.873
707.418;  -24.030;-1153.070;-1186.873
707.683;   42.873; -550.070; -530.874
707.949;  -35.324; -547.070; -578.874
708.215;   80.979; -129.070; -207.874
708.480;    3.182; -520.069; -420.875
708.746;  236.485;   68.931;   28.125
709.011;  -87.312; -578.069; -612.876
709.277;  -92.109; -538.069; -543.876
709.542;  -34.406; -428.069; -387.876
709.808;   64.397;  -59.068;   89.123
710.073; -128.500; -577.068; -695.877
710.339;   -4.696; -242.068; -228.877
710.604;  165.307; -780.068; -845.878
710.869;  570.510; -277.068; -366.878
711.135;  -99.787; -715.067; -628.879
711.400; -132.584; -507.067; -608.879
711.665;  -65.781; -404.067; -479.879
711.931; -133.778; -661.067; -677.880
712.196; -192.375; -876.067; -954.880
712.461;  231.528; -402.066; -490.880
712.726;  227.231; -727.066; -771.881
712.991; -110.466; -647.066; -664.881
713.256;  -27.063; -350.066; -332.882
713.521;  -60.060; -417.065; -381.882
713.787;  -88.357; -454.065; -472.882
714.052;  -14.354; -214.065; -400.883
714.317; -173.951;-1045.065; -981.883
714.581; 2094.052; -374.065; -268.883
714.846; 2491.655; -822.064; -888.884
715.111;  338.558;  261.936;  257.116
715.376;   -4.539;  -86.064; -223.885
715.641;   39.364; -365.064; -367.885
715.906;  552.368;   15.936; -551.885
716.171;  275.971;  221.937;  209.114
716.436;   54.474;  -78.063; -104.886
716.700; -167.923; -818.063; -692.886
716.965; -177.120; -794.063; -807.887
717.230; -103.217; -339.063; -392.887
717.494;    2.486;  -40.062; -134.888
717.759; -125.711; -784.062; -640.888
718.024;   65.992;  269.938;  250.112
718.288;  218.795;  685.938;  395.111
718.553; -220.802; -803.062; -977.889
718.817; -229.999; -883.061; -899.889
719.082;    2.604; -115.061; -125.890
719.346; -216.193;-1000.061; -947.890
719.611;  -71.290; -300.061; -255.891
719.875; -122.387; -568.060; -537.891
720.140;  -80.684; -453.060; -603.891
720.404;  127.319; -136.060; -249.892
720.668; 1425.622; -475.060; -411.892
720.933;  612.225;  146.940;  137.108
721.197; -152.572; -667.059; -600.893
721.461; -201.568; -851.059; -826.893
721.725;   36.435;  -21.059; -250.894
721.990;  -64.962; -284.059; -204.894
722.254;   21.741;  -26.059; -108.894
722.518;  -62.156; -286.058; -442.895
722.782; -144.053; -743.058; -594.895
723.046;  312.050;  614.942;  570.105
723.310;  122.653;  374.942;  210.104
723.574; -154.244; -654.058; -614.896
723.838; -138.741; -576.057; -642.897
724.102;  -16.938; -226.057; -239.897
724.366; -215.035;-1032.057; -978.897
724.630; -111.032; -749.057; -571.898
724.894; -107.729; -722.057; -514.898
725.158;    2.974;   38.944; -295.898
725.422;  -42.023; -394.056; -327.899
725.685;  -81.220; -441.056; -349.899
725.949; -108.417; -566.056; -519.900
726.213; -115.014; -732.056; -811.900
726.477;  301.089;-1020.055; -933.900
726.740;  278.492; -274.055; -104.901
727.004;  708.996; -384.055; -510.901
727.268; 6175.399; -442.055; -400.901
727.531; 1634.302; -961.055; -775.902
727.795;  -41.595; -713.054; -673.902
728.059;  -89.992; -552.054; -557.903
728.322;  -92.589; -841.054; -669.903
728.586;   57.214; -692.054; -701.903
728.849; -126.883; -695.053; -756.904
729.112; -157.880; -812.053; -912.904
729.376; -190.377; -959.053; -905.904
729.639;  -80.874; -536.053; -536.905
729.903; -177.971; -733.053; -699.905
730.166;  -58.868; -437.052; -399.906
730.429;    3.735; -317.052; -468.906
730.693;  -98.862; -355.052; -894.906
730.956;  533.041;  810.948;  651.093
731.219; 1210.344; -310.052; -103.907
731.482;  244.347;-1003.051; -894.907
731.745;  126.550; -794.051; -935.908
732.009;   99.053;  -30.051;   50.092
732.272; -137.744; -904.051; -771.909
732.535;  -15.040; -300.051; -310.909
732.798; -262.437;-1083.050;-1166.909
733.061;  -74.034; -430.050; -456.910
733.324;   83.369;   31.950; -180.910
733.587;  178.672;  290.950;  365.090
733.850;  -58.425; -973.049;-1050.911
734.113;  130.178;   33.951;   32.089
734.376;   40.581; -328.049; -447.912
734.639;  508.584; 1188.951; 1011.088
734.901;  169.687; -180.049; -402.912
735.164;  980.690; -883.048; -837.913
735.427; 2144.393; -166.048; -355.913
735.690;  236.996; -205.048; -234.913
735.952;  -31.701; -923.048; -925.914
736.215;  -27.098;-1113.048;-1009.914
736.478;   98.105; -771.047; -774.915
736.740;  451.808;   33.953;  129.085
737.003; 1412.211; -658.047; -672.915
737.266; 6587.314;  -94.047;   46.084
737.528;  780.517; -682.047; -660.916
737.791;  658.820; -316.046; -327.916
738.053; 1677.923;  465.954;  649.083
738.316;20406.527; -162.046; -136.917
738.578;12670.130; -770.046; -736.918
738.841;  881.833; -382.046; -446.918
739.103;  373.036; -875.045; -777.918
739.365;  962.039;   79.955;  -69.919
739.628;   -2.558; -884.045; -805.919
739.890;   22.945; -758.045; -710.919
740.152;  -23.452; -692.044; -754.920
740.414;   52.551; -408.044; -359.920
740.677;  -61.246; -785.044; -634.921
740.939;  -40.143; -587.044; -487.921
741.201;  512.460; -432.044; -572.921
741.463;   78.263; -689.043; -745.922
741.725;   80.066;  -21.043; -199.922
741.987;  200.669;  220.957;  116.078
742.249;   21.972; -751.043; -859.923
742.511;  392.875; -703.043; -794.923
742.773;   62.378; -546.042; -546.924
743.035;  309.181;  796.958;  533.076
743.297;   -4.016; -963.042;-1013.924
743.559; 1305.387; -278.042; -262.925
743.821;  105.691; -735.042; -744.925
744.083;  110.194;  -44.041; -149.925
744.345; -127.203; -869.041; -892.926
744.607;  152.300;   75.959;  122.074
744.868;  -59.997; -490.041; -554.927
745.130; -150.894; -994.041;-1008.927
745.392;  167.509;   -1.040;  -44.927
745.653;   44.112; -411.040; -378.928
745.915;  371.615;  896.960;  631.072
746.177;  137.118;   35.960;  -43.928
746.438;   79.121; -428.040; -543.929
746.700;  -12.476; -947.039; -988.929
746.961;   54.027; -659.039; -740.930
747.223;  310.530; -190.039;  -74.930
747.484;  220.333; -391.039; -471.930
747.746;  345.036;  -23.038; -106.931
748.007;  224.639; -647.038; -689.931
748.269;  592.442; -468.038; -440.931
748.530;  838.445; -852.038; -638.932
748.791;  496.248; -354.038; -420.932
749.053;  850.251;  286.963;  163.067
749.314;  825.255; -236.037; -169.933
749.575;  917.658; -945.037; -905.933
749.836; 1562.261; -217.037;   86.066
750.098; 5070.764;  -60.037;  -21.934
750.359;61421.867;  414.964;  555.066
750.620;14600.370; -121.036; -220.935
750.881; 1894.573; -585.036; -513.935
751.142; 2561.776; -950.036; -938.936
751.403;30594.379; -789.036; -705.936
751.664;11823.282;-1034.035; -999.936
751.925;  957.085; -175.035; -262.937
752.186;  596.388; -298.035; -278.937
752.447;  321.391; -590.035; -445.937
752.708;  148.494; -532.035; -648.938
752.969;   68.897; -566.034; -576.938
753.230;   33.400; -777.034; -672.939
753.491;   49.703; -650.034; -631.939
753.751;  197.306;  109.966;   19.061
754.012;  272.209;  258.967;  181.060
754.273;  166.012; -174.033;  -71.940
754.534;   76.515; -487.033; -580.940
754.794; -148.781; -926.033; -911.941
755.055;  381.922; 1051.967;  881.059
755.316;  -45.175; -700.032; -566.942
755.576;   16.328; -606.032; -576.942
755.837;  -37.069; -527.032; -695.942
756.097;  -15.666; -530.032; -564.943
756.358; -113.663; -725.032; -770.943
756.618;  -38.660; -705.031; -641.943
756.879;   48.343; -254.031; -349.944
757.139; -179.654;-1098.031;-1116.944
757.400;  -54.251; -538.031; -553.945
757.660;   42.452; -365.031; -401.945
757.920;   77.455; -266.030; -228.945
758.181;   21.458; -468.030; -351.946
758.441; -123.539; -870.030; -809.946
758.701;   19.064; -308.030; -215.946
758.961;   -0.133; -220.030; -278.947
759.222;  -22.630; -574.029; -502.947
759.482; -100.127; -683.029; -723.948
759.742; -112.824; -706.029; -547.948
760.002;   58.379;  -83.029; -143.948
760.262;  136.583;   50.972;  182.051
760.522;  -29.514; -498.028; -574.949
760.782;  -77.511; -738.028; -612.949
761.042;   26.992; -618.028; -573.950
761.302;  168.695;   55.972;  -18.950
761.562;  150.698; -164.027; -154.951
761.822;  226.301; -710.027; -551.951
762.082;  -33.096;-1104.027;-1093.951
762.342;  214.807; -328.027; -403.952
762.601;  192.110; -567.027; -506.952
762.861;  706.813; -281.026; -207.952
763.121;  851.516; -406.026; -411.953
763.381;14521.119; -499.026; -485.953
763.640;13576.822; -139.026; -307.954
763.900;  731.925; -242.026; -203.954
764.160;  221.528; -458.025; -491.954
764.419;   24.231; -726.025; -782.955
764.679;  -72.066; -795.025; -726.955
764.939;   16.937; -124.025; -210.955
765.198;  -99.460; -608.025; -563.956
765.458;  -91.457; -710.024; -612.956
765.717; -109.453; -454.024; -590.957
765.976;  -68.050; -428.024; -411.957
766.236;  -92.747; -475.024; -610.957
766.495;  135.956;  260.977;   73.042
766.755; -150.041;-1090.023; -987.958
767.014;   27.662; -594.023; -665.958
767.273;  -55.835; -373.023; -397.959
767.533;  -21.632; -228.023; -307.959
767.792;   17.571; -151.022; -188.960
768.051;   -4.226; -228.022; -276.960
768.310;  -84.223; -546.022; -650.960
768.569;   73.980; -161.022;    4.039
768.828;  -15.517; -285.022; -363.961
769.088; -166.714;-1050.021; -942.961
769.347;  -90.411; -755.021; -599.962
769.606; -134.708; -876.021; -857.962
769.865; -199.205;-1016.021;-1033.963
770.124;   43.498; -411.021; -336.963
770.383;  -70.199; -778.020; -910.963
770.641;   65.104; -398.020; -400.964
770.900; -102.693; -953.020; -846.964
771.159;  -42.289; -851.020; -951.964
771.418;   -2.386; -917.020; -779.965
771.677;  296.517; -224.019; -293.965
771.936;  332.520; -794.019; -865.966
772.194; 4963.323; -465.019; -437.966
772.453;19390.426; -213.019; -391.966
772.712; 1443.129;  416.982;  329.033
772.970;  322.232;   32.982;   63.033
773.229;  229.935;  -22.018;  102.033
773.488; -140.262; -814.018; -770.968
773.746;  179.341;  296.982;  335.032
774.005;   68.644;  190.983;  -22.969
774.263;   79.747;  243.983;  177.031
774.522; -128.650; -422.017; -548.969
774.780;  -79.547; -484.017; -417.970
775.039; -106.744; -551.017; -531.970
775.297;   36.959; -135.016; -351.970
775.555; -155.238; -489.016; -612.971
775.814; -179.735; -618.016; -570.971
776.072; -181.032; -749.016; -740.971
776.330; -129.929; -630.016; -520.972
776.589; -155.926; -703.015; -721.972
776.847; -186.122; -645.015; -624.973
777.105; -293.219;-1016.015;-1032.973
777.363;  -94.216; -459.015; -454.973
777.621; -216.513; -660.015; -717.974
777.879;   13.890;  -42.014;   32.026
778.138; -139.807; -554.014; -717.974
778.396; -143.804; -585.014; -526.975
778.654; -270.401;-1015.014; -970.975
778.912;  -48.898; -269.014; -371.976
779.170; -200.095; -880.013; -803.976
779.427; -227.492; -922.013; -897.976
779.685; -211.189; -880.013; -832.977
779.943; -105.986; -654.013; -593.977
780.201; -269.483; -964.012; -883.978
780.459; -153.980; -651.012; -610.978
780.717; -115.377; -440.012; -390.978
780.974; -101.374; -449.012; -490.979
781.232;  -92.171; -358.012; -338.979
781.490; -111.968; -551.011; -472.979
781.747; -155.465; -555.011; -476.980
782.005;  137.938;  462.989;  254.020
782.263; -266.258; -542.011;-1004.981
782.520; -108.255; -326.011; -501.981
782.778; -264.952;-1013.010;-1051.981
783.035; -297.849; -962.010; -938.982
783.293;  -53.046; -248.010; -206.982
783.550;  -51.843; -134.010; -198.982
783.808; -209.840; -764.010; -776.983
784.065; -249.437; -745.009; -874.983
784.322;  -47.134;   25.991;  -86.984
784.580; -194.831; -915.009; -771.984
784.837; -139.328; -392.009; -466.984
785.094; -193.625; -783.009; -762.985
785.352;  -95.722; -304.008; -404.985
785.609; -162.619; -934.008; -839.985
785.866; -113.416; -345.008; -401.986
786.123;  -96.513; -639.008; -583.986
786.380; -158.210; -665.008; -604.987
786.637;   25.793; -225.007; -380.987
786.895;   -9.604; -456.007; -543.987
787.152;   -1.901; -135.007; -267.988
787.409;    3.702; -123.007; -225.988
787.666;  -94.194; -299.006; -378.988
787.923; -158.691; -616.006; -695.989
788.179; -158.088; -551.006; -584.989
788.436; -139.285; -585.006; -585.990
788.693;    4.318;  -92.006;  -87.990
788.950;  307.221; -125.005; -112.990
789.207;  394.224; -381.005; -372.991
789.464;  -36.373; -161.005; -301.991
789.720;   75.330;  150.995;  110.009
789.977; -277.467;-1003.005; -671.992
790.234;   -0.264;   44.996;  -66.992
790.490; -242.061; -884.004;-1031.993
790.747;   40.242;  -85.004;   22.007
791.004;   -0.855; -426.004; -348.993
791.260;  -81.752; -430.004; -560.994
791.517; -150.349; -843.003; -788.994
791.773;  -13.646; -379.003; -342.994
792.030; -186.343; -596.003; -660.995
792.286; -109.640; -686.003; -636.995
792.543;   23.763;  -74.002; -159.995
792.799;  -40.934; -584.002; -382.996
793.055; -269.030;-1179.002;-1210.996
793.312; -123.027; -827.002; -816.997
793.568;  -51.724; -746.002; -599.997
793.824;   78.779; -226.001; -284.997
794.081;   71.582; -447.001; -508.998
794.337;  170.585; -664.001; -561.998
794.593; 2914.188; -319.001; -271.999
794.849;11417.091; -746.001; -772.999
795.105;  599.194; -270.000; -261.999
795.361;   75.497; -490.000; -457.000
795.617;  -73.400; -875.000; -945.000
795.873;  -30.500; -360.000; -407.000
796.129;  -19.100; -368.000; -306.000
796.385;   15.500; -124.000; -156.000
796.641;  191.100;  412.000;  550.000
796.897; -100.700; -666.000; -635.000
797.153;  221.700;  453.000;  357.000
797.409; -129.000; -785.000; -868.000
797.665;  -85.500; -625.000; -732.000
797.921; -101.100; -775.000; -762.000
798.176;  -40.900; -744.000; -747.000
798.432;  -38.200; -824.000; -596.000
798.688; -140.500;-1174.000;-1078.000
798.943;  201.400; -165.000; -147.000
799.199;   40.500;-1005.000; -959.000
799.455;  499.000;  369.000;  316.000
799.710;  301.900; -813.000; -380.000
799.966;  616.300; -162.000; -160.000
800.221;  994.700; -638.000; -721.000
800.477;20886.900; -743.000; -710.000
800.732;14775.500; -773.000; -800.000
800.988; 1237.300;  205.000;  -19.000
801.243; 4228.600; -454.000; -344.000
801.498;14379.500; -814.000; -739.000
801.754;  844.500; -289.000; -163.000
802.009;  235.100; -257.000; -335.000
802.264;  -44.100; -967.000;-1033.000
802.520;  121.200;  222.000;   -3.000
802.775;  -19.700; -524.000; -359.000
803.030;  162.700;  395.000;  356.000
803.285; -171.700; -840.000; -903.000
803.540;  -74.400; -686.000; -699.000
803.795;  -33.000; -648.000; -583.000
804.051;   10.100; -279.000; -346.000
804.306;  135.900;  168.000;  128.000
804.561;  331.900;  451.000;  362.000
804.816;  340.200;  714.000;  861.000
805.071;   86.100; -185.000; -280.000
805.325;  382.600; -257.000; -427.000
805.580; -140.800; -841.000; -877.000
805.835;   -3.400; -204.000; -297.000
806.090;  -70.600; -760.000; -676.000
806.345;    3.900; -344.000; -264.000
806.600;    9.400; -549.000; -632.000
806.854;  -28.800; -408.000; -538.000
807.109;   36.200; -493.000; -577.000
807.364;   61.300; -407.000; -328.000
807.618;   78.300; -415.000; -381.000
807.873;  145.300; -470.000; -494.000
808.128;  207.100; -257.000; -518.000
808.382;  255.300; -224.000; -332.000
808.637;  174.200; -440.000; -511.000
808.891;  371.200; -257.000; -180.000
809.146;  224.300; -902.000; -794.000
809.400;  502.200; -848.000; -923.000
809.654;  619.800; -779.000; -551.000
809.909;  935.200; -841.000; -927.000
810.163;13605.100; -813.000; -651.000
810.418;27623.000; -940.000; -861.000
810.672; 1826.200; -685.000; -690.000
810.926; 1359.400; -993.000; -973.000
811.180; 2938.600; -439.000; -372.000
811.434;59998.800;  240.000;  135.000
811.689;19398.200; -231.000; -365.000
811.943; 1105.000; -936.000; -953.000
812.197;  651.800; -893.000; -671.000
812.451;  271.500; -379.000; -514.000
812.705;  -10.300; -809.000; -619.000
812.959;  -34.800; -263.000; -388.000
813.213;   63.500; -283.000; -209.000
813.467;  226.200;  470.000;  253.000
813.721; -133.400; -764.000; -792.000
813.975; -183.900; -826.000; -877.000
814.229;  145.900;  430.000;  353.000
814.482; -106.800; -517.000; -566.000
814.736; -202.600; -766.000; -744.000
814.990; -201.100; -779.000; -872.000
815.244;  -19.000; -228.000; -285.000
815.497; -139.200; -636.000; -601.000
815.751;   17.900; -141.000;   82.000
816.005; -140.900; -470.000; -586.000
816.258;  -86.800; -510.000; -363.000
816.512; -169.200; -693.000; -610.000
816.766;   83.600;  121.000;  157.000
817.019;  115.700;  148.000;  149.000
817.273; -161.000;-1000.000; -802.000
817.526;   21.900; -206.000; -173.000
817.779;  -51.400;-1049.000; -960.000
818.033; -114.600; -693.000; -807.000
818.286; -184.300; -725.000; -792.000
818.540; -127.300; -403.000; -403.000
818.793;  -73.800; -402.000; -489.000
819.046; -167.800; -582.000; -520.000
819.299;  -17.200; -157.000; -166.000
819.553; -158.700; -552.000; -592.000
819.806; -259.100;-1016.000; -838.000
820.059;  -69.900; -334.000; -354.000
820.312;   78.500;  152.000;  185.000
820.565;   19.900;  110.000;  -27.000
820.818;    4.200;  -59.000; -173.000
821.071; -266.500;-1041.000; -957.000
821.324; -150.800; -536.000; -540.000
821.577; -118.000; -457.000; -483.000
821.830;  -81.400; -270.000; -172.000
822.083; -193.000; -733.000; -288.000
822.336;   -8.900; -261.000; -167.000
822.589; -209.600; -805.000; -688.000
822.842; -220.000; -875.000; -770.000
823.094; -338.600;-1076.000;-1114.000
823.347; -203.900; -925.000; -729.000
823.600;   96.500;  402.000;  187.000
823.853;  -26.000; -311.000; -267.000
824.105;  -91.400; -331.000; -575.000
824.358; -156.000; -617.000; -716.000
824.611;  133.400;  234.000;   40.000
824.863;  -23.500; -612.000; -591.000
825.116;  159.800;  -33.000;   27.000
825.368;  198.500; -366.000; -372.000
825.621;  298.800; -186.000; -240.000
825.873;  162.400; -704.000; -737.000
826.126; 1274.900; -669.000; -641.000
826.378;21906.100; -389.000; -505.000
826.630; 4108.700; -890.000; -898.000
826.883;  165.700; -754.000; -693.000
827.135;  147.700; -279.000; -270.000
827.387; -192.700; -893.000; -839.000
827.639;    3.700;  -86.000;   32.000
827.892; -178.500; -742.000; -582.000
828.144; -216.900; -848.000; -804.000
828.396;   -4.000;  104.000;  -80.000
828.648; -121.600; -440.000; -333.000
828.900; -245.500; -702.000; -795.000
829.152; -171.000; -684.000; -683.000
829.404;  -67.400; -215.000; -267.000
829.656;  108.600;  321.000;  214.000
829.908;   75.100;  393.000;  229.000
830.160; -277.300;-1064.000;-1047.000
830.412;  -85.300; -481.000; -430.000
830.664; -196.300; -557.000; -665.000
830.916;  -83.900; -268.000; -206.000
831.167; -303.600;-1073.000; -951.000
831.419; -158.200; -623.000; -566.000
831.671; -230.100; -764.000; -809.000
831.923;  -90.100; -311.000; -447.000
832.174; -116.400; -273.000; -331.000
832.426; -169.600; -493.000; -582.000
832.678; -325.700;-1043.000;-1091.000
832.929; -247.600; -947.000; -935.000
833.181;  -99.300; -575.000; -677.000
833.432;  -26.400;  -59.000; -186.000
833.684;   21.700;  112.000;  -27.000
833.935; -137.300; -610.000; -566.000
834.187; -214.600; -829.000; -823.000
834.438;   -6.200;  -58.000;  -25.000
834.689;    1.700; -255.000; -123.000
834.941;  -34.600; -343.000; -244.000
835.192; -138.200; -590.000; -533.000
835.443;  -92.700; -419.000; -506.000
835.695;   39.800;  138.000;  -16.000
835.946;  -85.900; -608.000; -378.000
836.197; -193.100; -599.000; -622.000
836.448;  -95.800; -528.000; -395.000
836.699;  -57.800; -253.000; -341.000
836.950;   62.700;   72.000;    7.000
837.201; -210.900;-1003.000; -987.000
837.452;  -42.900; -356.000; -170.000
837.703; -189.300; -791.000; -737.000
837.954;  -24.100; -205.000; -365.000
838.205; -104.100;-1029.000;-1008.000
838.456;  336.600; -196.000; -282.000
838.707;   36.400; -423.000; -519.000
838.958;   71.500; -634.000; -647.000
839.209;  535.400;   18.000;   40.000
839.460;  247.400; -439.000; -201.000
839.710;  348.300; -135.000; -297.000
839.961;  850.900;  730.000;  612.000
840.212;  667.100; -382.000; -497.000
840.462; 2319.600; -328.000; -277.000
840.713;34246.300; -571.000; -536.000
840.964;10713.400;  -62.000; -143.000
841.214;  910.100; -384.000; -624.000
841.465; 1047.500; -214.000; -141.000
841.715;  930.300; -417.000; -380.000
841.966; 1234.400; -746.000; -685.000
842.216;18702.200; -330.000; -431.000
842.466;55096.000; -169.000; -313.000
842.717; 2245.600; -964.000; -952.000
842.967;  613.900; -635.000; -641.000
843.217;  452.700;   20.000;   28.000
843.468;  191.800; -104.000; -132.000
843.718;  -16.700; -718.000; -726.000
843.968; -157.500; -837.000; -765.000
844.218;   84.200; -315.000; -262.000
844.469;  -39.800; -577.000; -561.000
844.719; -170.700; -537.000; -682.000
844.969; -114.400; -550.000; -580.000
845.219; -223.500; -814.000; -862.000
845.469; -112.700; -392.000; -342.000
845.719; -205.600; -792.000; -884.000
845.969;   65.900;  119.000;  174.000
846.219; -174.500; -738.000; -720.000
846.469;   86.500;  464.000;  432.000
846.718;  -55.000; -115.000;   31.000
846.968; -185.800; -827.000; -827.000
847.218;  -49.400; -224.000; -371.000
847.468; -139.300; -586.000; -555.000
847.718; -226.000; -827.000; -798.000
847.967; -218.900; -826.000; -915.000
848.217; -108.100; -449.000; -569.000
848.467;  -69.900; -405.000; -376.000
848.716; -164.800; -708.000; -725.000
848.966;   57.800; -372.000; -358.000
849.215;  -69.900; -428.000; -419.000
849.465; -114.800; -785.000; -615.000
849.714; -243.300;-1132.000;-1150.000
849.964;  -50.100; -551.000; -613.000
850.213;   -1.700; -393.000; -355.000
850.463;  211.000;  137.000;  340.000
850.712;   43.600; -542.000; -567.000
850.961;   64.400; -739.000; -678.000
851.211;  212.300; -513.000; -504.000
851.460;  351.200; -635.000; -650.000
851.709; 1173.300;  -25.000;   18.000
851.958;21415.100; -912.000; -750.000
852.208;20388.600; -859.000; -879.000
852.457;  813.100; -181.000;  -13.000
852.706;  170.600; -791.000; -823.000
852.955;   73.500; -507.000; -528.000
853.204;  -84.100; -521.000; -461.000
853.453; -125.700; -418.000; -458.000
853.702; -207.700; -660.000; -750.000
853.951; -152.700; -532.000; -520.000
854.200; -166.600; -613.000; -562.000
854.449; -201.300; -695.000; -661.000
854.698; -139.300; -340.000; -279.000
854.946;  -55.800; -181.000; -284.000
855.195; -239.400; -843.000; -868.000
855.444; -121.400; -395.000; -420.000
855.693; -192.800; -345.000; -432.000
855.941; -131.900; -387.000; -516.000
856.190;  -60.800; -256.000; -382.000
856.439; -185.300; -652.000; -703.000
856.687;  -65.200;  -99.000;  -72.000
856.936; -156.400; -621.000; -323.000
857.184; -307.200;-1067.000;-1020.000
857.433; -146.200; -423.000; -512.000
857.681; -270.900; -989.000; -953.000
857.930; -108.800; -282.000; -433.000
858.178; -287.200; -856.000; -929.000
858.427; -258.100; -802.000; -781.000
858.675; -183.700; -377.000; -544.000
858.923; -190.500; -527.000; -819.000
859.172; -326.500;-1094.000;-1070.000
859.420; -124.200; -339.000; -239.000
859.668; -219.400; -624.000; -628.000
859.916;   13.200;  109.000;  115.000
860.164; -162.100; -699.000; -603.000
860.413;  601.800; -878.000; -696.000
860.661;  289.400; -709.000; -577.000
860.909; -127.900; -339.000; -325.000
861.157;  -89.500; -277.000; -444.000
861.405; -182.500; -534.000; -670.000
861.653;   97.700;  310.000;  310.000
861.901;  378.500; -543.000; -613.000
862.149;  -67.200; -801.000; -824.000
862.396;  -83.200; -297.000; -187.000
862.644;  -96.600; -368.000; -347.000
862.892;   10.800;   98.000;  138.000
863.140; -173.600; -549.000; -530.000
863.388; -237.400; -815.000; -759.000
863.635; -196.900; -642.000; -601.000
863.883;   60.200;  231.000;  190.000
864.131; -131.000; -288.000; -357.000
864.378; -191.500; -675.000; -540.000
864.626;  -99.500; -347.000; -415.000
864.873; -198.100; -556.000; -505.000
865.121; -199.800; -714.000; -799.000
865.368;  -15.700; -173.000;   75.000
865.616;    7.800;  -33.000;  -40.000
865.863;  -76.000; -462.000; -506.000
866.111; -163.700; -795.000; -824.000
866.358;  157.800; -426.000; -420.000
866.605; 5142.800;  -64.000; -804.000
866.853; 4029.100; -621.000; -537.000
867.100;  -70.100; -728.000; -775.000
867.347; -123.400; -672.000; -611.000
867.594; -115.400; -740.000; -714.000
867.841;  233.300;   97.000;   17.000
868.089; -229.000; -746.000; -698.000
868.336; -134.600; -477.000; -420.000
868.583; -188.700; -637.000; -741.000
868.830;  -46.600; -131.000; -170.000
869.077; -291.800; -859.000; -787.000
869.324; -166.600; -502.000; -458.000
869.571; -226.900; -398.000; -430.000
869.818; -183.400; -485.000; -439.000
870.065; -129.400; -439.000; -513.000
870.311; -168.700; -456.000; -542.000
870.558; -147.600; -332.000; -311.000
870.805;  -86.800; -320.000; -384.000
871.052; -147.800; -494.000; -369.000
871.298;  -61.400; -204.000; -131.000
871.545;  -73.900; -151.000; -185.000
871.792; -130.600; -173.000; -222.000
872.038;  -67.900;   43.000; -126.000
872.285; -176.200; -496.000; -387.000
872.532; -113.600; -357.000; -387.000
872.778;  108.200;  556.000;  403.000
873.025; -115.800; -384.000; -359.000
873.271;  150.200;  501.000;  578.000
873.517;   19.100; -133.000; -209.000
873.764;   29.000; -193.000;  -80.000
874.010;  -82.100; -143.000; -230.000
874.257;  -24.600;  123.000;   90.000
874.503; -214.300; -579.000; -479.000
874.749;  -75.900;   31.000;  275.000
874.995;  -69.200;  -80.000;  -20.000
875.242; -163.800; -540.000; -478.000
875.488; -200.300; -414.000; -439.000
875.734;  -47.000; -106.000; -234.000
875.980;  401.500; -872.000;-1032.000
876.226;  606.000; -157.000; -255.000
876.472;   48.000;  343.000;  237.000
876.718;    5.800;  184.000;  158.000
876.964;   -7.600;   56.000;   55.000
877.210; -201.800; -547.000; -677.000
877.456; -217.400; -630.000; -557.000
877.702; -266.900; -821.000; -832.000
877.948; -160.100; -377.000; -497.000
878.193;   41.300;  361.000;  255.000
878.439; -135.700; -487.000; -472.000
878.685; -125.200; -272.000; -343.000
878.931; -207.400; -618.000; -676.000
879.176;  -75.400; -201.000; -201.000
879.422; -323.200; -933.000; -820.000
879.668;  213.500;   10.000;   79.000
879.913;  293.200;   53.000;  137.000
880.159;  -53.600; -112.000;  -17.000
880.404;  -51.900; -152.000; -162.000
880.650;   -4.900;   91.000;  141.000
880.895; -261.300; -670.000; -710.000
881.141; -149.000; -454.000; -428.000
881.386; -209.800; -503.000; -658.000
881.631; -141.900; -311.000; -166.000
881.877;   29.700;  112.000;  -13.000
882.122; -187.500; -684.000; -600.000
882.367; -120.100; -136.000; -186.000
882.612;  -56.200;  -80.000; -176.000
882.858; -294.100; -877.000; -823.000
883.103;  -90.300; -297.000; -267.000
883.348; -243.000; -759.000; -852.000
883.593; -214.500; -677.000; -602.000
883.838;  -42.500; -311.000;  -24.000
884.083;  128.700;  353.000;  288.000
884.328; -114.200; -564.000; -545.000
884.573;  -31.100; -196.000; -143.000
884.818;  448.900; -694.000; -531.000
885.063;  282.900; -348.000; -315.000
885.308; -150.500; -475.000; -398.000
885.553;   87.600;  245.000;  325.000
885.797; -195.500; -545.000; -615.000
886.042;  -14.700;    8.000;   58.000
886.287; -110.800; -253.000; -211.000
886.532;  -40.100;   26.000;  204.000
886.776; -122.600; -407.000; -525.000
887.021; -212.400; -621.000; -574.000
887.265; -266.400; -685.000; -689.000
887.510; -206.700; -557.000; -496.000
887.755; -106.700; -194.000; -164.000
887.999; -218.300; -552.000; -575.000
888.244;  -61.500;  -58.000;  161.000
888.488;   78.000;  371.000;  393.000
888.732; -185.700; -368.000; -520.000
888.977; -197.000; -622.000; -567.000
889.221; -254.500; -683.000; -659.000
889.465; -197.100; -422.000; -566.000
889.710; -111.600;  -56.000; -299.000
889.954;   76.800;  579.000;  467.000
890.198; -244.900; -584.000; -707.000
890.442; -243.500; -716.000; -712.000
890.687; -281.900; -800.000; -753.000
890.931; -118.900; -273.000; -210.000
891.175; -215.900; -502.000; -500.000
891.419;  -61.600; -105.000; -110.000
891.663; -121.100; -239.000; -112.000
891.907; -267.600; -801.000; -545.000
892.151; -285.800; -920.000; -815.000
892.395; -130.400; -274.000; -387.000
892.638;   52.600;  408.000;  291.000
892.882; -281.500; -780.000; -867.000
893.126;   90.600;  758.000;  558.000
893.370;  -86.100; -167.000; -168.000
893.614; -214.900; -714.000; -715.000
893.857;  -97.500; -183.000; -197.000
894.101; -203.300; -527.000; -631.000
894.345;  -58.900;  300.000;  150.000
894.588;  110.000;  569.000;  380.000
894.832;  -91.800; -178.000;  -84.000
895.075;  -77.700;   15.000;  -92.000
895.319; -172.700; -552.000; -420.000
895.563; -161.300; -413.000; -353.000
895.806; -229.500; -628.000; -741.000
896.049;  -59.600; -576.000; -368.000
896.293;  278.800;  527.000;  405.000
896.536;  -92.900; -465.000; -468.000
896.779;  -41.100; -149.000;   -1.000
897.023; -223.700; -751.000; -714.000
897.266;    9.500;  325.000;  269.000
897.509; -295.300; -900.000; -901.000
897.752;    0.500;  149.000;  171.000
897.996; -345.700; -972.000; -864.000
898.239;  -17.300;  168.000;  102.000
898.482; -177.700; -431.000; -453.000
898.725;   13.300;  101.000;   53.000
898.968; -247.500; -609.000; -744.000
899.211; -128.500; -513.000; -361.000
899.454; -194.700; -633.000; -539.000
899.697;  -79.800;   90.000;  -43.000
899.940; -265.200; -761.000; -757.000
900.182; -153.100; -335.000; -405.000
900.425; -137.300; -150.000; -298.000
900.668;   14.700;  491.000;  350.000
900.911; -141.000; -292.000; -345.000
901.154;  -33.200;  141.000;   -3.000
901.396; -226.200; -407.000; -412.000
901.639; -200.900; -430.000; -496.000
901.882; -305.500; -790.000; -809.000
902.124;  -95.500;  -29.000; -143.000
902.367; -196.400; -315.000; -361.000
902.609; -180.800; -476.000; -453.000
902.852;  -97.100; -108.000; -260.000
903.094; -156.000; -458.000; -337.000
903.337;  -52.100;  -26.000;   53.000
903.579; -132.400; -228.000; -441.000
903.821; -275.100; -597.000; -744.000
904.064;  -44.000;   85.000;  127.000
904.306;  -80.100; -126.000; -166.000
904.548; -135.600; -152.000; -366.000
904.790; -133.300; -195.000; -340.000
905.033; -166.100; -625.000; -577.000
905.275; -208.600; -513.000; -524.000
905.517;  156.600;  468.000;  256.000
905.759;  -74.000; -667.000; -761.000
906.001; -134.500; -322.000; -369.000
906.243;  -48.000; -162.000; -224.000
906.485;  328.900; -265.000; -207.000
906.727;  200.600; -499.000; -542.000
906.969;   25.500;  -30.000; -135.000
907.211;  285.000; -316.000; -382.000
907.453;  533.300; -188.000; -237.000
907.695;   29.600; -158.000; -385.000
907.936;  203.100;  818.000;  706.000
908.178;  -45.300;   92.000; -135.000
908.420;  -75.800; -111.000; -162.000
908.662; -233.800; -633.000; -682.000
908.903;  -70.100; -208.000; -123.000
909.145;  -59.400; -240.000; -305.000
909.386;  107.100;  315.000;  280.000
909.628;  146.200;  363.000;  397.000
909.870;   54.100;   29.000;  264.000
910.111; -124.600; -809.000; -949.000
910.353;   89.400; -123.000; -161.000
910.594;   81.500; -574.000; -606.000
910.835;  223.700; -265.000; -326.000
911.077;  324.600; -503.000; -604.000
911.318;  637.100; -505.000; -471.000
911.559;  877.700; -577.000; -880.000
911.801; 2868.700; -284.000; -280.000
912.042;24274.800;  -50.000; -159.000
912.283;50958.900;  404.000;  371.000
912.524; 6168.400; -396.000; -457.000
912.765;  947.700; -193.000;   79.000
913.006;  544.200; -307.000; -338.000
913.247;  170.700; -270.000; -290.000
913.488;   59.500;  -43.000;   30.000
913.729;  -92.600; -373.000; -373.000
913.970;  -54.600;  -96.000; -292.000
914.211;  -74.600; -160.000; -198.000
914.452;  -65.900; -118.000;  -11.000
914.693;  129.700;  510.000;  592.000
914.934;  100.600;  510.000;  440.000
915.175;  -21.700;   53.000;  -95.000
915.415;  -68.000; -137.000;   27.000
915.656;  -47.000;  -28.000;  192.000
915.897; -124.500; -252.000;  -82.000
916.137;  -78.700;   74.000;   -9.000
916.378; -159.100; -573.000; -517.000
916.619;  -81.000; -159.000;  -63.000
916.859;   22.300;  303.000;  330.000
917.100;  372.300; 1655.000; 1070.000
917.340;  177.200;  930.000;  728.000
917.581;  187.600;  965.000;  789.000
917.821;   12.400; -171.000;  143.000
918.061;   70.700; -199.000;  -72.000
918.302;  -48.400; -152.000; -211.000
918.542;    8.500;  -22.000;    3.000
918.782;  125.700;  369.000;  377.000
919.023;  376.600;  360.000;  427.000
919.263; 2978.600; 8131.000;  202.000
919.503; 2083.300; -137.000;  -54.000
919.743; 1201.800;  390.000;  266.000
919.983;  475.100; -134.000;  -26.000
920.223;  212.900;  135.000;   14.000
920.463;  381.000;  631.000;  554.000
920.703;  308.200;   84.000;   39.000
920.943;  397.600; -110.000;   90.000
921.183;  483.500; -414.000; -405.000
921.423; 1073.700;  307.000;  546.000
921.663; 1537.400; -174.000; -257.000
921.903; 3336.500;  237.000;  173.000
922.143;20166.500;  372.000;  389.000
922.383;64346.500;  158.000;  115.000
922.622;18093.300; -120.000;  -15.000
922.862; 2225.300;  796.000;  785.000
923.102;  969.400;  -51.000;   33.000
923.341;  407.500;   59.000;   74.000
923.581;  254.300;  450.000;  360.000
923.821;  137.100;  301.000;  398.000
924.060;  103.100;  351.000;  193.000
924.300;  -58.200;  -16.000; -128.000
924.539;   42.400;  584.000;  473.000
924.779;  145.000;  812.000;  597.000
925.018;   -3.100;  247.000;  353.000
925.257;   42.700;  595.000;  666.000
925.497;   -1.300;  447.000;  412.000
925.736;  -57.600;  -35.000;  102.000
925.975;   80.000;  687.000;  669.000
926.214;  125.700;  907.000;  850.000
926.454;   90.400;  706.000;  757.000
926.693;   29.500;  419.000;  543.000
926.932;  160.900; 1021.000;  825.000
927.171;  228.600; 1107.000; 1044.000
927.410;  166.300; 1144.000;  967.000
927.649;  132.400;  924.000;  742.000
927.888;   41.900;  590.000;  564.000
928.127;   77.000;  680.000;  678.000
928.366;  133.300;  842.000;  826.000
928.605;  169.400;  831.000;  737.000
928.844;  574.500; 1451.000; 1393.000
929.083; 1340.300;  770.000;  613.000
929.321;  674.300; 1335.000; 1359.000
929.560;  284.900; 1158.000; 1122.000
929.799;   16.800;  574.000;  475.000
930.038;  220.900; 1025.000; 1394.000
930.276;  -41.200;  334.000;  397.000
930.515;  107.500;  827.000;  681.000
930.753;   19.800;  614.000;  589.000
930.992;   23.900;  664.000;  717.000
931.230;   85.000;  847.000;  847.000
931.469;  477.400; 2162.000;  892.000
931.707;  235.700;  840.000;  751.000
931.946;  209.700; 1278.000; 1344.000
932.184;  256.100; 1437.000; 1175.000
932.423;  197.400; 1265.000;  963.000
932.661;  286.700; 1296.000; 1428.000
932.899;  114.700;  987.000;  821.000
933.137;   98.200;  754.000;  564.000
933.376;  410.500; 1664.000; 1335.000
933.614;  402.400; 1759.000; 1196.000
933.852;  175.100; 1357.000; 1171.000
934.090;  367.600; 1722.000; 1747.000
934.328;  310.600; 1252.000; 1457.000
934.566;  267.800; 1431.000; 1110.000
934.804;  399.000; 1263.000; 1309.000
935.042; 1166.800; 1861.000; 1850.000
935.280; 4338.200; 2088.000; 2063.000
935.518; 3492.000; 2113.000; 2007.000
935.756;  768.500; 2481.000; 2316.000
935.994;  455.600; 1808.000; 1751.000
936.231;  799.500; 2890.000; 2950.000
936.469;  445.000; 2367.000; 2378.000
936.707;  414.200; 2220.000; 2167.000
936.945;  540.100; 2825.000; 2882.000
937.182;  489.900; 2679.000; 2741.000
937.420;  738.400; 3602.000; 3031.000
937.657;  932.100; 3365.000; 3478.000
937.895;  812.700; 3331.000; 3488.000
938.133;  727.200; 3540.000; 3528.000
938.370;  805.900; 3896.000; 4191.000
938.607;  904.600; 4488.000; 4205.000
938.845; 1221.400; 5587.000; 5549.000
939.082; 1071.500; 5387.000; 5177.000
939.320; 1164.000; 5799.000; 5728.000
939.557; 1393.600; 6549.000; 6491.000
939.794; 1572.800; 7285.000; 7097.000
940.031; 1966.400; 8421.000; 8368.000
940.269; 2323.300; 9552.000; 9107.000
940.506; 2351.000;10901.000;10507.000

