
Integration time [ms]: 100.000
Averaging Nr. [scans]: 40
Smoothing Nr. [pixels]: 0
Data measured with spectrometer [name]: 2101013U2
Wave   ;Sample   ;Dark     ;Reference
[nm]   ;[counts] ;[counts] ;[counts] 

394.013;   43.893; -450.257; -315.536
394.305;  218.966; -461.258; -419.536
394.596; 1101.688; -676.269; -527.514
394.887; 2731.205; -796.268; -654.518
395.178; 1058.285;  145.736;   11.476
395.470;   99.172; -210.263; -356.526
395.761;  205.820;  305.734;  394.479
396.052;  335.313; -545.284; -306.489
396.343;  319.383; -557.276; -454.503
396.634;  124.577; -200.279; -290.497
396.926;  106.252; -618.268; -565.517
397.217;  121.687;   11.725;  -17.504
397.508;   45.103; -366.273; -154.507
397.799;   47.777; -555.279; -571.497
398.090;    2.321; -973.280; -902.495
398.381;  133.763;   11.708;  -11.473
398.672;   -6.261; -585.292; -742.473
398.963;   55.733; -348.279; -373.498
399.254;  122.398;   54.709; -209.475
399.545;  -12.759;-1017.266; -883.520
399.836;   65.322; -407.277; -343.501
400.127;   51.639; -205.295; -209.468
400.418;   45.148; -423.274; -392.506
400.709;   76.733; -359.281; -333.493
401.000;   39.227; -268.291; -309.476
401.290;  112.226;  225.698;  115.545
401.581;   79.696; -166.286; -228.485
401.872;   30.686; -542.298; -486.462
402.163;   47.982; -313.296; -252.467
402.454;   97.524; -123.291; -163.475
402.744;   79.798; -844.297; -813.465
403.035;  450.829; -226.293;  -86.471
403.326;  581.067; -366.292; -384.474
403.617;  397.605;  204.701;  165.539
403.907;  256.119; -593.283; -679.490
404.198; 2395.905; -545.307; -599.446
404.489; 6233.924; -618.283; -588.491
404.779; 2088.804; -618.302; -660.456
405.070;  212.883;  -67.304; -174.451
405.360;  341.906; -259.293; -238.472
405.651;  361.115;  125.699;   98.542
405.942;  211.541;  209.714;  127.516
406.232;  262.205; -432.285; -413.487
406.523;  479.824;  641.706;  758.530
406.813;   86.943; -579.286; -644.484
407.104;  368.362;  261.708;  144.527
407.394;  168.157; -604.299; -591.462
407.685;  156.105;  336.715;  222.513
407.975;   68.297; -400.283; -382.490
408.265;  140.413; -134.289; -190.478
408.556;   74.621; -472.291; -459.475
408.846;  187.975;  474.706;  429.530
409.137;   91.047;   -1.288; -216.480
409.427;   67.605; -193.285; -271.487
409.717;   31.231; -776.273; -692.508
410.007;  148.099;    4.715; -170.486
410.298;   86.442; -360.295; -342.469
410.588;   73.003; -495.285; -510.486
410.878;   23.883; -792.287; -873.482
411.168;  123.364; -481.298; -478.463
411.459;  115.342; -295.283; -242.489
411.749;   74.694; -609.292; -507.474
412.039;   50.795; -755.289; -386.480
412.329;  207.540;   40.722;  132.501
412.619;  202.793;  -62.286; -148.485
412.909;  376.391;  639.711;  594.521
413.199;  331.721; -130.280; -251.495
413.490;  407.856;  521.710;  352.523
413.780;  146.700;-1013.279; -913.496
414.070;  340.109;  -46.276;  235.497
414.360;  370.836; -729.278; -666.498
414.650;  435.579; -726.288; -688.482
414.940;  512.549; -538.280; -441.496
415.230;  932.676;   50.712;   74.519
415.520; 6029.387;  155.730;   66.486
415.809;23879.433; -305.281; -125.493
416.099;18459.524; -388.277; -229.501
416.389; 5205.945;  435.726;  236.494
416.679; 3017.650;   91.738;   85.473
416.969;  536.537; -527.287; -503.483
417.259;  463.627;  341.721;  171.503
417.549;  685.556;  522.718;  318.508
417.838; 1647.904; -205.268; -147.518
418.128; 5462.037;  650.710;  492.522
418.418; 4560.438; -491.272; -579.509
418.708; 3083.021;    9.726;  -48.506
418.997;11594.766; -474.275; -480.505
419.287;12104.177; -733.273; -790.507
419.577;11410.091; -160.283; -123.489
419.866;37799.347; -588.277; -498.501
420.156;38750.633; -242.270;  -55.513
420.446; 6970.468; -112.263;  -26.526
420.735;  891.427; -376.271; -446.512
421.025;  852.535; 1830.722;  315.502
421.314;  681.925; -203.271; -226.512
421.604; 1465.147;   89.732;  233.484
421.893;  821.047; -705.271; -602.511
422.183;  224.768; -487.263; -461.526
422.472;  372.798;  -36.271; -107.511
422.762;  471.797; -416.266; -379.521
423.051;  251.559; -916.276; -916.503
423.341;  325.579; -491.273; -439.507
423.630;  426.328; -121.265;   15.477
423.919;  379.741;   58.725;   49.495
424.209;  367.673;  -31.263;   56.473
424.498;  490.777;   68.732;  161.483
424.787; 1089.283; -535.267; -601.518
425.077; 3372.127;   34.735;   29.478
425.366; 4762.429; -734.262; -744.528
425.655; 9926.080;  639.727;  259.493
425.945;21573.558; -313.247; -268.554
426.234;11922.202;  117.741;  300.467
426.523; 5072.682;  -86.259; -350.534
426.812; 6913.993;  107.734;  159.480
427.101;10197.543; -127.269; -323.515
427.390;12857.687;  -55.270;  -86.514
427.680; 2937.002; -624.257; -411.538
427.969;  488.087; -330.255; -301.540
428.258;  316.768; -385.257; -477.536
428.547;  536.167;  449.728;  397.490
428.836; 1268.479; -421.253; -398.543
429.125; 1832.359; -199.259;  -72.534
429.414;  818.926; -330.251; -294.548
429.703; 3118.526; -231.251; -213.548
429.992; 9358.805; -938.250; -828.549
430.281; 6064.086; -397.264; -331.524
430.570;  569.517;  -21.252;   32.454
430.859;  575.531;  279.741;  352.466
431.148;  441.929;  636.752;  631.446
431.437;  310.691;  391.748;  367.454
431.725;  155.620; -544.257; -481.536
432.014;  134.261; -845.253; -756.545
432.303;  389.555; -149.239; -105.569
432.592;  631.917; -460.263; -178.525
432.881; 1030.130; -601.248; -437.554
433.169; 6218.938; -343.255;  -61.540
433.458;12580.038;  445.765;  540.424
433.747; 5215.185; -397.261; -289.529
434.036;  882.130; -275.242; -280.564
434.324; 2089.267; -395.249; -379.551
434.613; 3630.774;   40.757;  159.437
434.902; 1245.220;  333.760;  439.433
435.190;  583.153;   75.761;  295.431
435.479;  324.481;  -52.245;   83.441
435.767;   93.164; -411.244; -427.561
436.056;  229.276; -340.242; -294.563
436.345;  369.847; -372.240; -223.568
436.633;  378.163;   60.750;  383.450
436.922;  254.974;  208.760;  414.432
437.210;  615.853; -194.236;    1.426
437.499; 1942.811; -583.235; -432.576
437.787; 2155.778; -339.236;  -10.574
438.075;  525.309;   56.761;  162.430
438.364;  746.612;  -44.238;  250.429
438.652;  432.091; -286.226; -138.592
438.941;  132.355;    3.770;  269.415
439.229;    2.289; -665.252; -466.545
439.517;   53.395; -160.234;  -85.577
439.806;  -11.968; -501.225; -290.595
440.094;  192.653;  377.766;  650.421
440.382;  196.206; -653.233; -302.580
440.670;  221.061; -361.235; -285.576
440.959;   23.499; -347.223; -170.599
441.247;   78.892; -151.229; -109.587
441.535;   87.868; -266.235;   31.423
441.823;   42.550; -497.234; -305.578
442.111;  192.096;  173.771;  327.412
442.400;  543.930; -628.245; -335.559
442.688; 1398.202; -111.234; -620.579
442.976; 1030.662; -786.213; -450.617
443.264;  109.089; -324.224; -364.597
443.552;  113.917; -258.226;   51.408
443.840;  172.092;  602.765;  876.423
444.128;  131.955;  265.767;  269.420
444.416;   -0.401; -694.228; -312.588
444.704;   32.679; -465.219;  -92.605
444.992;   85.920;   -0.226;  240.407
445.280;   47.431; -517.230;  -94.585
445.568;   32.516; -694.212; -396.618
445.856;  351.213; -174.221;  357.398
446.143;  796.725;  -54.220;   -7.604
446.431;  648.927;  -25.228;  625.411
446.719;  247.223;  489.783;  675.391
447.007;  200.625;  481.769;  705.416
447.295;  193.521;  597.777;  871.402
447.583;  108.564; -464.229;  -34.587
447.870;  151.785; -434.221; -202.601
448.158;  426.555; -104.230;  129.415
448.446;  316.751; -800.219; -338.604
448.733;  185.015;   13.776;  269.403
449.021;  260.615;   60.788;  341.382
449.309;  189.105; -296.210;  208.379
449.596;  212.594;  128.783;   59.392
449.884;  170.778; -571.222; -325.600
450.172;  155.008; -756.227; -406.590
450.459;  444.645;  645.786;  780.387
450.747; 2370.918; -411.218; -147.608
451.034; 7617.478;  493.772;  889.411
451.322; 6256.348; -413.214; -170.614
451.609;  514.417;  292.777;  508.403
451.897;  593.118; -550.203; -183.634
452.184; 1810.222; -622.223; -400.598
452.472; 1694.152;   97.792;  269.375
452.759;  343.202;  512.781;  864.395
453.047;  124.438; -407.212; -125.617
453.334;   85.660; -732.219; -216.606
453.621;   65.451; -438.214; -161.615
453.909;  119.285;   13.796;  384.368
454.196;  101.905; -299.199; -123.641
454.483;  223.056;  317.798;  540.364
454.771;  128.355; -215.208;  196.374
455.058;   43.858; -316.207;  102.374
455.345;  103.086;   71.807;  344.347
455.632;   87.436; -128.207;  235.373
455.919;   40.328;  -82.196;  182.354
456.207;  -50.115; -774.198; -450.642
456.494;  -16.732; -475.200;  -66.639
456.781;   28.977; -399.202; -198.635
457.068;   60.718; -253.206;  -29.628
457.355;    2.394; -698.206; -401.629
457.642;   -3.176; -552.205; -290.630
457.929;    6.827; -778.194; -417.651
458.216;   67.588; -575.212; -354.617
458.503;  255.481; -173.193;  -19.652
458.790;  215.702; -864.208; -630.625
459.077;  266.482;  -77.202;  110.364
459.364;  797.995; -350.195; -210.649
459.651; 1694.816;  -46.206;  220.372
459.938;  780.143; -864.209; -665.623
460.225;  157.685;  132.799;  276.363
460.512;  -49.975; -836.197; -688.645
460.799;  109.717;  -32.218;  320.392
461.086;   63.073; -370.200; -251.640
461.372;   53.010; -509.198; -279.642
461.659;  114.804; -165.196;  108.354
461.946;   61.155; -445.193;  -54.651
462.233;  249.245;  842.800;  888.361
462.519;  353.517; -814.201; -464.639
462.806;  997.876; -768.197; -497.645
463.093;  903.101; -445.191;  -66.656
463.380;  -33.958; -920.186; -824.664
463.666;   71.077; -259.197;  -18.646
463.953;   93.140; -406.195; -243.648
464.239;  206.564; -173.195;  -77.648
464.526;  389.225;  413.806;  743.350
464.813;  365.212; -565.190; -304.658
465.099;  359.031;  606.807;  607.348
465.386;  335.985;  903.807;  921.348
465.672;   18.626; -694.197; -522.645
465.959;   24.130; -598.188; -520.662
466.245;    0.910; -468.193; -359.652
466.532;   99.912; -109.195;   63.352
466.818;   76.267; -357.186; -216.664
467.104;   11.532; -488.182; -415.672
467.391;  -14.611; -628.189; -459.658
467.677;   49.245; -289.186;    9.335
467.964;   -8.929; -682.189; -471.660
468.250;   77.073; -331.186; -160.665
468.536;   77.265;   90.811;  180.341
468.822;  -24.090; -821.184; -574.668
469.109;  146.462;  351.827;  471.311
469.395;  194.920;  729.808;  787.346
469.681;  192.368;   46.811;  156.341
469.967; 1244.223; -699.188; -382.660
470.254; 2690.756; -494.188; -306.662
470.540; 1733.103; -601.196; -476.646
470.826;  235.618; -488.181; -397.675
471.112;  314.088;  288.816;  113.331
471.398;   81.118; -253.183;  -58.670
471.684;   49.421; -626.177; -447.680
471.970;   -5.478; -918.180; -981.675
472.256;   35.794; -521.192; -441.654
472.542;   12.598; -499.171; -434.691
472.828;   22.953; -743.182; -607.672
473.114;   27.492; -380.166; -283.700
473.400;   30.063; -504.175; -293.684
473.686;   17.948; -452.166; -400.701
473.972;   62.027; -230.174; -131.687
474.258;  -47.038; -925.173; -843.689
474.544;  211.863; -183.178;   -2.679
474.830;  297.289;  -65.175;   45.316
475.116;  474.114; -123.190; -196.658
475.401;  642.624; -558.180; -467.676
475.687;  207.073; -725.180; -718.676
475.973;   -2.064; -673.181; -770.673
476.259;  249.991;  736.825;  764.315
476.544;  343.879; -539.176; -437.682
476.830;  834.269; -398.172; -322.690
477.116;  686.903; -430.177; -336.682
477.401;  148.398;  346.820;  358.324
477.687;  -17.312; -289.175; -405.684
477.973;   43.564;   21.819;   28.326
478.258;  -19.707; -448.163; -348.706
478.544;   45.503;   21.815;   61.334
478.829;  -54.946; -818.171; -738.692
479.115;  -41.681; -749.172; -651.690
479.401;  -28.877; -444.174; -449.686
479.686;   41.297; -253.180;  -74.676
479.972;  -31.232; -886.178; -776.680
480.257;   41.118; -258.166;  -65.700
480.542;  -11.942; -614.170; -469.693
480.828;  224.361; 1288.824; 1392.317
481.113;  -39.441; -464.176; -426.683
481.399;   -2.533; -236.161; -202.711
481.684;  -58.907; -620.166; -462.700
481.969;   24.206; -158.159;  -73.713
482.255;   -5.407; -439.169; -285.695
482.540;   -3.307; -569.178; -441.680
482.825;   -4.938; -395.187; -404.663
483.110;   89.347;  -85.169; -105.696
483.396;  188.577; -840.157; -652.718
483.681;  490.252;  543.826;  730.313
483.966;  165.425; -696.160; -700.712
484.251;    9.851; -404.174; -310.687
484.536;   -6.922; -356.165; -378.703
484.822;   27.504; -205.173; -218.687
485.107;  -38.110; -599.152; -502.726
485.392;  141.034;  662.836;  541.296
485.677;   79.031;  354.832;  163.302
485.962;  109.175;  160.843;  270.283
486.247;   89.101;  -14.162;   -8.707
486.532;   48.744; -178.166; -325.701
486.817;  167.337;  381.839;  431.291
487.102;  125.948; -453.154; -514.722
487.387;  649.879; -637.156; -652.718
487.672; 1191.014; -154.164;  -38.705
487.957;  716.419; -394.160; -286.711
488.241;  211.507; -290.150; -314.729
488.526;  736.342; -280.152; -148.726
488.811; 1205.820; -881.177; -818.680
489.096;  883.076; -666.154; -702.723
489.381;  481.038;    3.847;  162.275
489.666;  385.367; -428.161; -510.710
489.950;  180.404;  558.846;  627.277
490.235;  -39.298; -480.151; -458.728
490.520;  -29.909; -756.161; -723.710
490.804;  -61.644; -827.156; -736.719
491.089;    5.873; -469.149; -299.732
491.374;   18.638; -132.164;  -75.704
491.658;   -6.666; -817.147; -717.735
491.943;  171.671; -657.152; -609.727
492.227;  256.494; -178.155;  -38.721
492.512;   31.899; -294.157; -341.717
492.797;  -51.933; -713.149; -716.731
493.081;  -53.863; -588.147; -598.735
493.366;  -38.807; -751.161; -635.711
493.650;  195.940;  831.859;  917.254
493.935;   38.834; -648.147; -447.734
494.219;  -46.398; -778.142; -687.743
494.503;  -35.263; -585.150; -487.730
494.788;   39.616;   46.842;   74.285
495.072;  108.658;  184.850;  434.271
495.356;  169.726; -463.148; -343.733
495.641;  482.093; -812.146; -736.736
495.925;  454.411; -976.156; -903.719
496.209;   53.647; -599.149; -451.732
496.494;  -44.422; -763.142; -544.744
496.778;   32.948; -364.154; -360.722
497.062;  -57.564; -819.156; -627.719
497.346;  -28.329; -869.160; -640.711
497.631;  132.904;  580.852;  560.266
497.915;   77.754;  -64.145;  175.261
498.199;   49.177; -341.157; -277.718
498.483;   45.065; -562.152; -508.725
498.767;  183.859;  301.850;  300.271
499.051;  197.195; -126.149; -100.732
499.335;   33.793; -693.149; -739.731
499.619;  -29.784; -381.129; -423.767
499.903;   14.568; -272.155;  -65.721
500.187;   49.031; -588.153; -316.724
500.471;   16.045; -796.152; -595.727
500.755;  120.091;   62.839;  -96.710
501.039;   11.043; -270.155; -357.721
501.323;   73.517;  -21.141;  264.254
501.607;   33.819; -447.163; -503.706
501.891;    5.679; -607.156; -512.718
502.174;  -44.035; -726.144; -585.741
502.458;   82.574;   89.849;  370.273
502.742;   37.666; -180.138; -191.751
503.026;  119.858; -412.147; -254.734
503.310;  190.980; -437.159; -375.713
503.593;  126.685; -464.147; -325.735
503.877;  123.556; -232.133; -156.760
504.161;  186.408;    2.847;  -50.724
504.444;  121.768; -841.158; -710.716
504.728;  453.037; -487.164; -522.704
505.012;  718.806; -257.150;  -76.729
505.295;  551.767; -417.161; -212.711
505.579;  542.560; -256.156; -496.719
505.862;  748.425; -555.145; -333.738
506.146;  749.107; -681.159; -758.714
506.429;  403.207;  568.841;  461.286
506.713;   58.928; -732.151; -667.728
506.996;  323.098;   90.846;  295.278
507.280;  337.107; -633.165; -474.703
507.563;  234.791; -469.155; -261.721
507.847;   96.431; -423.153; -112.724
508.130;   87.718; -665.161; -456.711
508.413;  105.639; -758.167; -577.700
508.697;  260.214; -151.167;   12.300
508.980;  142.258; -422.153; -312.724
509.263;   -4.212; -466.155; -450.720
509.547;   34.081; -124.150;   82.271
509.830;   55.870; -172.160;  140.289
510.113;   83.635;  128.844;  298.281
510.396;   47.913; -530.152; -300.725
510.680;  166.677; -818.145; -812.738
510.963;  648.527;  184.846;  180.277
511.246;  535.439; -493.150; -357.730
511.529;  275.582; -482.145;  -83.739
511.812;  364.102; -250.134;   10.241
512.095;  267.976; -740.151; -396.728
512.378;   75.514; -317.147; -245.736
512.661;   44.948; -703.137; -623.753
512.944;   23.629; -750.142; -637.744
513.227;   69.870; -170.137; -171.752
513.510;   22.215; -479.144; -671.741
513.793;   38.196; -485.140; -435.747
514.076;  122.787;  -43.127;  -39.771
514.359;  113.148; -294.149; -135.732
514.642;   61.732; -442.142; -567.744
514.925;  746.294;  581.860;  561.253
515.208;  995.774; -498.134; -443.758
515.491;  654.413; -276.133; -182.761
515.773;  360.494; -410.143; -337.742
516.056; 2097.405;  249.864;  409.246
516.339; 2795.233; -754.136; -652.755
516.622; 1908.811; -518.150; -488.730
516.904; 1277.751;  882.857;  975.257
517.187;  582.194; -730.138; -523.752
517.470;  399.125; -568.143; -510.743
517.752;  455.786; -624.136; -470.756
518.035;  354.257; -708.139; -725.749
518.318;  372.984; -799.136; -744.755
518.600; 2406.216; -300.132; -325.762
518.883; 3309.107;  310.858;   88.256
519.165; 1598.537; -585.138; -426.751
519.448;  388.691;  -61.132;  -19.762
519.730;  218.044; -573.126; -415.773
520.013;  317.659;  588.867;  664.240
520.295;  852.529;  -94.134;  -15.759
520.578; 1906.254; -335.131; -305.764
520.860; 2142.616; -254.132;   56.238
521.143; 1134.863; -763.135; -584.756
521.425;  473.332; -251.125; -279.775
521.707;  681.862; -622.127; -380.771
521.990; 1757.788; -199.127;  167.229
522.272; 2019.948; -116.140;   -4.748
522.554;  919.170; -237.143; -157.742
522.836;  362.877;  -24.134;   99.241
523.119;  226.732; -496.148; -189.734
523.401;  175.061; -448.130; -314.766
523.683;   86.874; -865.137; -693.753
523.965;  285.442;  408.862;  260.248
524.247;  264.078;   54.878;  170.220
524.529;  216.554; -451.134; -367.759
524.812;  351.587;   -3.130;  191.234
525.094;  870.891; -773.138; -631.751
525.376; 1346.866; -143.124;   78.223
525.658;  818.056; -441.136; -339.754
525.940;   23.075; -805.131; -671.764
526.222;   33.409; -188.136;  -88.755
526.504;  120.423; -190.131;   32.237
526.786;  182.256; -960.133; -647.760
527.068;  317.697; -124.123;  -67.778
527.349;  147.427; -865.137; -774.754
527.631;  130.041; -137.132;   22.238
527.913;  131.411; -664.127; -450.771
528.195;  162.225; -761.125; -639.774
528.477;  253.199;  -93.134;  -30.758
528.759;  135.737; -648.130; -522.766
529.040;   70.495; -569.123; -293.778
529.322;   54.128; -235.125;  -10.774
529.604;  139.565;  -47.130;   93.233
529.886;  134.944; -546.126; -302.773
530.167;  126.506;  232.870;  192.235
530.449;   39.688;    1.853;   63.265
530.731;   29.902; -572.122; -459.779
531.012;   55.748; -513.120; -216.784
531.294;   81.362; -118.116;  -43.792
531.575;  152.107;  290.875;  538.225
531.857;   60.719; -548.135; -266.757
532.138;   97.415; -113.141;   40.254
532.420;  194.840;  294.865;  403.244
532.701;  229.834; -722.133; -751.760
532.983;  362.512;  232.867;  182.239
533.264;  106.192; -243.126;  175.228
533.546;  -24.416; -491.136; -508.755
533.827;   50.080;  173.867;   -1.759
534.109;   55.494; -352.135;  -80.757
534.390;  100.670; -725.132; -582.762
534.671;  262.465; -270.135;  -82.756
534.953;  129.898; -751.123; -611.779
535.234;   20.197; -426.117; -255.789
535.515;  -73.619; -891.119; -735.785
535.796;   -9.718; -431.128; -193.770
536.078; -116.384;-1050.124; -904.777
536.359;   13.374;  -22.123;    3.221
536.640;  -17.548; -480.125; -197.774
536.921;  165.220;  225.871;  143.232
537.202;  350.663;  -87.138;  -16.751
537.483;  461.028;  251.869;  377.236
537.764;  166.056;   17.870;   98.235
538.045;  -32.252; -543.134; -371.758
538.326;  -38.728; -596.129; -447.768
538.607;   27.438; -686.127; -476.771
538.888;  162.064;   98.879;    5.218
539.169;  192.384; -704.122; -535.781
539.450;  329.269;  236.871;   16.233
539.731;  216.743; -361.121; -182.783
540.012;  127.098;  199.880;  412.216
540.293;   93.760;   82.876;  158.224
540.574;    6.083; -895.113; -717.796
540.855;  451.867;  435.879;  377.218
541.136;  529.856;   47.878;  139.220
541.416;  281.738; -161.130; -220.766
541.697;  187.699; -274.131; -170.763
541.978; 1036.917; -270.135; -315.757
542.259; 1319.838; -211.127; -236.771
542.539;  651.881; -191.116; -186.790
542.820;  183.782;  461.875;  480.225
543.101;  133.953;  -52.145;  -77.738
543.381;   40.187; -638.127; -591.771
543.662;  272.235;  159.873; -254.771
543.942;  550.008; -751.127; -830.770
544.223; 1059.908;  193.878;  161.219
544.504;  676.366; -275.124; -182.777
544.784;  583.569; -592.126; -408.773
545.065; 1620.160;  104.884; -254.791
545.345; 1964.582;  227.881;   14.215
545.626; 1263.932;  -14.113; -108.796
545.906;  891.456;   77.869;   98.235
546.186;  351.923;   92.874;  -95.773
546.467;  213.193;   99.877;  -95.778
546.747;  337.031;  264.884;  327.210
547.027;  365.314;   91.876;  111.223
547.308;  308.033; -376.127; -530.770
547.588;  379.497;  299.871;  371.232
547.868;  192.957;  458.870;  588.235
548.149;  201.292;  609.885;  593.207
548.429;  123.536; -347.127; -299.771
548.709;  207.623; -645.120; -461.784
548.989;  466.766;   84.882;   88.213
549.269; 2059.039;   10.868;  139.239
549.550; 4808.447;  215.877;  117.222
549.830; 4303.775; -758.111; -556.799
550.110;  851.407; -468.110; -320.801
550.390;  823.728; -128.122;  -56.779
550.670; 1139.378; -868.114; -783.795
550.950;  803.316; -509.121; -471.782
551.230;  176.712;  549.879;  460.218
551.510;   -7.460; -381.121; -326.782
551.790;   33.415; -173.109; -127.803
552.070;  270.368;  940.877; 1181.223
552.350;  409.886; -492.119; -377.786
552.630;  587.560;   -2.121;   77.219
552.909;  356.760;  181.884;   73.209
553.189;  227.046;  -49.132;   33.237
553.469;  194.260; -703.119; -514.786
553.749;  189.389; -469.127; -357.772
554.029;  157.401;   33.883;  -24.790
554.308;  159.071; -154.115;  -37.794
554.588;   70.931; -196.128; -204.770
554.868;   80.692; -366.121;  -47.782
555.147;  142.418; -114.115;  -46.793
555.427;  604.213; -260.116; -250.792
555.707; 3857.716; -284.115; -200.793
555.986; 4703.303; -719.111; -538.800
556.266; 2473.030;   23.884;   72.210
556.546;  113.640; -888.121; -675.782
556.825;  260.101; -657.114; -556.794
557.105; 1789.504; -125.128;   17.230
557.384; 2062.334;  122.884;  187.209
557.664;  798.287; -717.116; -508.792
557.943;  101.716; -557.121; -411.782
558.222;  179.019; -345.118; -344.788
558.502;  262.695; -116.115;  -76.793
558.781;  488.015;  194.885;  499.208
559.061;  412.419; -232.118; -227.788
559.340;  307.124;  302.883;  353.211
559.619;  710.879;   93.884;  148.210
559.899; 1032.176; -239.117; -266.789
560.178;  909.394; -778.115; -593.793
560.457; 3105.077; -623.117; -562.790
560.736; 4422.404; -472.111; -482.800
561.015; 2931.977; -500.128; -502.769
561.295;  373.185;  180.893;  215.193
561.574;  355.442;  119.885;  116.207
561.853;  502.294;  274.891;  303.197
562.132;  501.222;  -45.114;  182.206
562.411;  420.736;  396.879;  553.219
562.690;  144.990; -592.115; -458.792
562.969;  140.614;  472.888;  630.203
563.248;  508.083; 2966.878; 2487.219
563.527;  264.204; -290.111; -408.800
563.806;  367.611; -650.127; -521.771
564.085;  417.000; -297.105; -206.810
564.364;  251.054; -594.117; -405.790
564.643;  493.811; -276.121; -223.781
564.922; 1858.363;  221.890;  397.198
565.201; 1869.617; -640.109; -700.803
565.479;  815.764; -297.115; -219.792
565.758;  319.229; -810.128; -712.770
566.037;  482.518; -155.109; -100.803
566.316;  238.309; -286.116;  -28.791
566.595;   60.467;  -17.115;  -12.793
566.873;   83.231; -166.111;  -79.801
567.152;  -47.661; -490.113; -590.797
567.431;    1.730; -113.116;    6.210
567.709;   10.910; -344.107; -212.807
567.988;  247.575; -810.114; -769.794
568.266;  547.966; -160.115;  -68.793
568.545;  379.647; -644.100; -514.819
568.824;  590.963;  160.885;  356.208
569.102;  524.500; -351.114; -235.794
569.381;  226.262; -492.116; -407.792
569.659;  -51.040; -553.113; -553.796
569.938;   52.482; -743.122; -465.780
570.216;   97.046; -225.109; -225.804
570.494;  -10.972; -632.114; -572.795
570.773;   32.165;  202.879;  114.218
571.051;   15.396; -373.123; -357.778
571.330;   62.983; -221.113; -174.796
571.608;   50.365; -181.098; -173.823
571.886;  -66.177; -671.111; -581.799
572.164;  -59.933; -739.121; -621.782
572.443;  -41.246; -562.105; -512.811
572.721;  -21.022; -399.117; -289.790
572.999;  -25.779; -280.117; -168.788
573.277;  104.897;  379.894;  620.191
573.555;  271.524;   94.894;   37.190
573.834; 1352.046;  -86.117; -114.788
574.112; 1560.088;  880.893;  811.193
574.390;  472.380; -143.111;  -96.801
574.668;    4.915;  -91.112;  -61.797
574.946;   -3.950; -165.106; -187.810
575.224;    6.942;   71.891;  -16.803
575.502;   -9.593; -200.116; -204.791
575.780;  -78.634; -767.112; -829.798
576.058;  148.754; 1589.889; 1004.200
576.336;  -23.515; -210.110; -129.801
576.614;  -40.984; -511.112; -340.798
576.891;   43.246; -711.115; -823.794
577.169;  486.404; -158.108; -285.805
577.447;  580.937;  169.893;  202.193
577.725;  288.095;  629.888;  854.201
578.003;    6.218;  -71.112; -371.798
578.280;   94.113; -208.104; -242.812
578.558;   62.320; -450.115; -422.793
578.836;  127.978; -210.114; -145.795
579.114;   46.914; -630.112; -670.797
579.391;   73.248;   -6.117;  -18.789
579.669;  -75.378; -595.114; -704.794
579.947;  180.709; -326.107; -127.806
580.224;  316.784; -692.107; -524.806
580.502;  316.838;  127.893;   76.193
580.779;   14.478;  -42.117;   75.210
581.057;  -65.279; -584.109; -470.804
581.334;  -89.972; -726.102; -695.815
581.612;   26.025;   54.895;  511.190
581.889;  -21.284;  -83.101; -129.818
582.167;  -29.470; -298.099; -190.821
582.444;  -85.840; -845.102; -814.817
582.721;  104.986;  657.899;  715.183
582.999;   44.627; -326.100; -167.821
583.276;  534.900; -812.123; -713.779
583.553;  703.206; -364.102; -294.816
583.831;  231.334; -607.104; -631.812
584.108;   47.877;  349.892;  174.195
584.385;   27.027; -122.102;  -98.815
584.662;  -61.394; -651.111; -828.801
584.940;   26.580;  204.889;  204.199
585.217;  -11.590;  -73.113; -303.796
585.494;   43.214;   71.890;  118.198
585.771;  199.972; -250.109; -354.804
586.048;  494.984; -196.113;  -76.796
586.325;  303.759; -721.110; -773.801
586.602;   99.713;  230.896;  213.188
586.879;  -17.901; -499.100; -580.820
587.156;   49.051; -156.105; -331.810
587.433;  -36.367; -701.102; -667.817
587.710;   75.692;  152.888;  234.202
587.987;  295.331; -264.105; -236.811
588.264;  790.318;  315.888;  387.202
588.541; 1315.516;  -61.104;   26.187
588.818; 2690.649;   72.892;  171.196
589.095; 2284.611; -163.104; -174.812
589.371;  367.245; -459.109; -414.804
589.648;    8.013; -581.107; -437.807
589.925;   25.979; -517.114; -621.795
590.202;    2.691; -741.112; -607.798
590.478;  104.883; -166.105;  -73.811
590.755;  249.755; -241.108; -132.806
591.032; 2470.586; -741.110; -699.802
591.308; 3394.130; -732.094; -790.831
591.585; 1763.810; -573.110; -560.802
591.862;  145.360;-1056.102; -950.817
592.138;   72.853; -475.108; -474.805
592.415;  145.814; -486.104; -495.813
592.691; 1459.512;  460.896;  518.188
592.968; 1851.217; -208.098; -123.824
593.244;  876.006; -695.116; -595.790
593.521;   72.835; -105.102;  -42.817
593.797;  -13.796; -810.122; -720.780
594.074;  318.004; -611.096; -588.826
594.350;  657.865;  828.905;  729.172
594.626;  293.656; -303.111; -283.801
594.903;  108.036; -643.101; -645.817
595.179;  188.643;  243.896;  418.187
595.455;   13.314; -136.107; -150.807
595.731;    3.469;  -19.103;  -38.814
596.008;  -34.349; -464.111; -434.800
596.284;   39.826; -187.100; -242.820
596.560;   55.461; -501.093; -493.833
596.836;  197.228; -173.105;  -70.810
597.112;  340.653; -582.108; -437.805
597.388;  260.927;  -49.097;  -48.826
597.665;  123.862;  437.887;  530.203
597.941;  -68.160; -572.089; -658.839
598.217;   17.714; -323.110; -293.802
598.493;  240.473;   61.891; -204.804
598.769;  515.671; -175.100;  -50.819
599.045;  285.556; -490.108; -562.806
599.321;   73.850; -193.100; -261.820
599.597;  125.873; -355.109; -476.804
599.872;  472.566;  409.896;  429.187
600.148;  358.904;  -61.097; -172.826
600.424;  296.061;   91.893;  202.193
600.700;  243.138; -170.107; -280.807
600.976;  141.098; -442.097; -464.825
601.252;  245.769; -226.109; -272.803
601.527;  215.991; -833.104; -840.813
601.803;  144.709; -453.105; -404.812
602.079;  177.221; -124.100; -118.819
602.354;  565.471; -620.092; -531.835
602.630;  818.535; -140.113; -482.796
602.906; 2286.916; -910.101; -863.818
603.181; 6632.835; -627.119; -534.786
603.457; 5621.376;   98.903; -278.826
603.733;  814.519; -605.120; -626.783
604.008;  949.375; -245.106; -164.810
604.284; 3001.537; -636.101; -580.817
604.559; 2631.320;   -3.112;  -42.799
604.835;  477.428; -163.105; -225.810
605.110;  402.780; -732.099; -892.821
605.385;  680.164;  224.907;  267.167
605.661;  664.868; -625.095; -729.829
605.936; 1146.157; -664.108; -737.806
606.211;  992.501;  -17.103; -170.815
606.487;  203.699; -329.114; -376.794
606.762;   11.736; -791.119; -745.786
607.037;  -19.647; -501.105; -433.810
607.313;  -56.889; -589.096; -574.828
607.588;   -3.125; -375.106; -137.810
607.863;   31.615;  -28.101; -143.818
608.138;  175.488;  513.890;  516.198
608.413;   26.034; -576.099; -592.822
608.688;   56.028; -203.108; -267.805
608.964;  188.844; -509.106; -218.809
609.239;  241.751; -107.105; -212.810
609.514;  234.658;  281.895;  240.188
609.789;  648.338; -187.104; -716.812
610.064;  842.660; -435.096; -609.827
610.339;  877.670; -855.109; -799.804
610.614; 1167.476; -131.100; -315.820
610.889;  648.709;  215.895;  107.188
611.163;   35.234; -407.104; -591.812
611.438;   84.450;   81.886; -167.794
611.713;   14.937; -467.101; -499.817
611.988;   54.689; -144.101; -328.818
612.263;  -21.597; -771.102; -717.815
612.538;  217.384;  385.887;  251.204
612.812;  171.577; -832.100; -911.820
613.087;  131.640; -358.098; -338.823
613.362;  -54.311; -497.107; -557.807
613.637;   46.947;  261.897;  138.186
613.911;  -31.303; -256.092; -345.835
614.186;  129.437; -249.107; -292.807
614.460;  645.715; -842.081; -758.854
614.735;  763.389;  -55.087;  -17.843
615.010;  149.879;   43.912;  -82.841
615.284;  241.352;  360.892;  246.195
615.559;  369.620; -792.092; -955.835
615.833;  292.782;  -76.099;  -87.822
616.108;   -9.193; -225.090; -390.837
616.382;  161.315;  274.913;  402.156
616.656;  154.933; -241.090; -232.837
616.931;  493.333; -785.099; -700.822
617.205; 1036.792; -973.104; -979.813
617.480;  943.230;  -91.125;    6.225
617.754;  170.727; -396.125; -128.774
618.028;   23.573; -369.129; -382.768
618.302;   74.676;   73.892;  -25.805
618.577;  -44.277; -371.103; -518.815
618.851;  -61.759; -399.109; -600.803
619.125;  -47.346; -335.134; -378.759
619.399;  -37.333; -244.104; -374.813
619.673;  -51.287; -330.115; -515.792
619.947;  -53.922; -333.114; -448.795
620.222;  -11.193; -198.110; -204.801
620.496;   -6.358;  -47.121;  -96.782
620.770;   23.558; -187.122;  -93.781
621.044;  218.826;  323.895;  346.190
621.318;  750.645; -653.120; -614.783
621.592;  643.042; -430.121; -409.783
621.866;  351.996; -476.112; -572.799
622.140;   25.707; -207.116; -356.791
622.413;   49.150;  138.889;  112.200
622.687;  -36.738; -746.101; -492.817
622.961;   24.476; -130.108; -143.805
623.235;  -63.024; -633.111; -661.800
623.509; -109.342; -816.105; -848.811
623.783;   -4.590;  -12.107;   48.193
624.056;    0.271; -254.120; -280.783
624.330;   38.640;   63.888;   -3.797
624.604;   63.304; -271.116; -355.790
624.877;   71.962;  180.890;   26.198
625.151;   37.323; -249.114; -238.794
625.425;  -42.331; -150.103; -283.814
625.698;  -45.495; -367.119; -374.785
625.972; -100.186; -799.110; -765.802
626.245;   97.606;  685.884;  484.210
626.519;  -48.450; -426.120; -340.784
626.792;  -22.762; -192.107; -380.807
627.066;  -99.074; -485.122; -662.779
627.339;  -83.240; -736.110; -663.802
627.613;   31.148;  351.880;  148.216
627.886;   55.791;  187.891; -612.803
628.160;  -17.806;  312.880; -161.783
628.433;  -89.042; -695.125; -703.775
628.706;  -75.650; -517.120; -615.784
628.979;   28.439;  296.876;  117.223
629.253;  -95.540; -785.119; -833.786
629.526;  357.042; -334.126; -253.772
629.799;  331.471; -641.123; -479.778
630.072;  173.875; -497.128; -516.769
630.346;  -61.544;-1115.116;-1080.790
630.619;  445.414; -467.107; -545.808
630.892;  607.652;  709.889;  593.200
631.165;  347.417;  790.896;  679.187
631.438;  -75.357;-1092.112;-1055.798
631.711;   46.824;  453.877;  257.221
631.984;  -56.899; -523.117; -624.789
632.257;  -74.602; -636.117; -681.789
632.530;  -56.020; -412.119; -433.785
632.803;   19.521; -109.115;    7.207
633.076;  -71.032; -360.123; -422.777
633.349;    6.879;  173.872;  121.231
633.622;  -38.746; -187.119; -240.785
633.895; -120.230; -903.120; -823.783
634.167;  -79.406; -496.126; -525.773
634.440;   -1.638;  -19.116; -137.792
634.713;    0.534;  -22.119; -120.786
634.986;   73.418;  593.871;  453.233
635.258;  -69.431; -507.115; -597.793
635.531;   91.094;  742.882; -343.788
635.804;  -36.975; -303.117; -318.789
636.077;  -78.192; -830.116; -852.791
636.349;   -7.308; -586.115; -474.793
636.622;  370.967; 1695.874; 1392.228
636.894;  234.150; -474.120; -909.784
637.167;  141.611; -836.127; -789.771
637.439;   27.832; -278.128; -213.770
637.712;  -53.057; -312.126; -293.772
637.984;  -75.891; -635.116; -707.791
638.257;  353.743;  515.877;  488.222
638.529;  546.759; -881.125; -924.776
638.802;  263.499; -508.128; -449.769
639.074; -108.817; -927.122; -952.781
639.346; -114.880; -942.135; -930.757
639.619;   -3.894;  -79.142; -319.744
639.891;    0.776;  -83.122; -168.779
640.163;  -71.547; -689.122; -756.780
640.435;   29.130;  273.878;  103.220
640.708;    2.707;  -72.122; -132.780
640.980;  -25.491; -366.122; -362.781
641.252;  171.761;  -25.121;  -71.781
641.524; 1757.112;  580.879;  573.219
641.796; 1804.114;-1094.121; -907.782
642.068;  308.316; -191.121; -300.782
642.340;  -62.607; -486.121; -566.783
642.613;   30.645;  294.880;  323.217
642.885; -111.254; -787.120; -878.783
643.157;  -51.952; -810.120; -658.784
643.428;   48.800;  170.880;  218.216
643.700;  -65.073; -498.120; -425.784
643.972;  -39.871;  -16.119; -133.785
644.244;  -86.544; -474.119; -559.785
644.516;  -58.618; -250.119; -114.786
644.788;   59.284;  662.881;  548.214
645.060;  -24.039;  -12.119; -124.786
645.332;  -91.662; -525.118; -535.787
645.603;   35.115;  479.882;  342.213
645.875;  -83.308; -334.118; -369.787
646.147;  162.218; 1487.882; 1242.212
646.418;  -59.205; -931.117; -918.788
646.690;  130.022; -714.117; -715.789
646.962;   39.349; -413.117; -451.789
647.233;  -27.624;   15.883;   11.211
647.505;  -98.848; -595.117; -475.790
647.776;   29.454;  328.884;  229.210
648.048;   -4.194; -248.116; -418.790
648.320;  -72.567; -752.116; -679.791
648.591; -151.915;-1055.116; -958.791
648.862;  -89.063; -505.116; -577.792
649.134;   10.463;  115.885;  198.208
649.405;  -50.535; -661.115; -618.792
649.677;  -43.158; -475.115; -598.793
649.948;   -9.106; -181.115; -296.793
650.219;    4.021;  -37.115; -147.793
650.491;  -91.478; -431.114; -520.794
650.762; -114.376; -705.114; -731.794
651.033;  -84.474; -437.114; -424.795
651.304;  -84.022; -743.114; -728.795
651.576;  -84.395; -680.114; -645.795
651.847;  -31.943; -250.113; -140.796
652.118;  -38.242;  -32.113; -189.796
652.389; -103.290; -639.113; -722.796
652.660;  -32.988; -147.113;  -89.797
652.931; -117.136; -897.112; -871.797
653.202;  -75.284; -382.112; -541.798
653.473;  -65.832; -633.112; -533.798
653.744;  137.044; -595.112; -590.798
654.015;  132.971; -356.112; -303.799
654.286;  -71.027; -642.111; -663.799
654.557;  -51.925; -586.111; -521.799
654.828; -149.273;-1114.111;-1088.800
655.099;  -83.422; -404.111; -291.800
655.370; -102.320; -427.111; -543.801
655.641; -119.193; -656.110; -714.801
655.911; -113.816; -618.110; -638.801
656.182;   49.611;  437.890;  387.198
656.453;   91.788;  830.890;  746.198
656.724;  -66.611; -466.110; -426.802
656.994;  -96.384; -553.109; -568.803
657.265; -103.332; -862.109; -873.803
657.536;  -94.905; -500.109; -377.804
657.806; -106.553; -561.109; -593.804
658.077; -132.351; -866.109; -950.804
658.347;  -75.275; -523.108; -598.805
658.618; -133.623; -646.108; -694.805
658.888;  -14.671;  -41.108;  112.195
659.159;  -85.269; -432.108; -548.806
659.429;  -11.967; -292.108; -349.806
659.700;    7.309; -435.107; -390.807
659.970;    4.186; -370.107; -359.807
660.241;   -4.612; -754.107; -921.807
660.511;  510.365; -147.107; -174.808
660.781;   76.042; -793.106; -748.808
661.052;  -43.406; -222.106; -381.808
661.322;  -26.405;   21.894;   -9.809
661.592;   16.072;  257.894;  148.191
661.862;  -75.301; -369.106; -382.810
662.133;  -94.474; -551.105; -502.810
662.403; -128.472; -770.105; -676.810
662.673;  -40.695; -256.105; -213.811
662.943; -114.744; -612.105; -551.811
663.213;   -8.467;  -85.105;  -81.811
663.483;  -88.190; -593.104; -568.812
663.753;  -40.263; -194.104; -152.812
664.023;   -5.461;   68.896;  -32.813
664.293;  -67.710; -319.104; -126.813
664.563; -122.458; -694.104; -648.813
664.833; -121.856; -743.103; -608.814
665.103; -132.329; -730.103; -793.814
665.373; -114.027; -766.103; -806.814
665.643;  -93.050; -863.103; -918.815
665.913;   42.676; -534.103; -714.815
666.182;  142.078; -685.102; -719.816
666.452;  262.130;  -22.102;  -89.816
666.722;  -32.468; -724.102; -784.816
666.992; -116.516; -948.102; -921.817
667.261;  -97.739; -824.102; -808.817
667.531;  202.962;  134.899;   45.183
667.801;  543.289; -440.101; -412.818
668.070;  221.816;  714.899;  697.182
668.340;  -93.607; -883.101; -840.819
668.609;   82.795;  588.900;  301.181
668.879;  -76.429; -490.100; -558.819
669.149;  -70.202; -539.100; -516.820
669.418; -101.900; -698.100; -726.820
669.688;  -30.523; -482.100; -666.820
669.957;   48.204; -423.099; -546.821
670.226;  -24.569; -268.099; -331.821
670.496;  -88.593; -431.099; -635.822
670.765;  -79.741; -418.099; -501.822
671.034; -143.864; -872.099; -828.822
671.304;    1.188;   55.902; -111.823
671.573; -161.435;-1085.098; -957.823
671.842;   86.766; -380.098; -294.823
672.112;   19.918; -692.098; -586.824
672.381;    2.245; -239.098; -214.824
672.650; -138.778;-1005.097;-1021.825
672.919;  -78.026; -631.097; -507.825
673.188; -103.649; -681.097; -878.825
673.457; -148.548;-1101.097;-1143.826
673.726;  -73.621; -579.096; -646.826
673.995;  -52.369; -533.096; -479.826
674.265;  -41.692; -263.096; -333.827
674.534;   -0.665; -183.096; -235.827
674.802;   -7.963; -618.096; -703.828
675.071;  969.988; -886.095; -801.828
675.340; 3853.290; -464.095; -339.828
675.609; 1284.842;  103.905;   82.171
675.878;   70.094; -949.095; -893.829
676.147;   32.721;  -26.095;   -8.829
676.416;   72.222; -210.094; -294.830
676.685;  717.499; 1000.906; -622.830
676.953;  110.101; -603.094; -452.831
677.222;  -26.972; -193.094; -273.831
677.491;  -41.895;  -24.094; -127.831
677.759;   -0.518;   11.907;  172.168
678.028;  -24.417; -279.093; -222.832
678.297;   -8.815;   71.907;  197.168
678.565; -143.288; -898.093; -944.833
678.834;  -61.186; -311.093; -268.833
679.102;  -73.684; -411.092; -391.834
679.371; -133.057; -898.092; -727.834
679.639; -133.381; -797.092; -786.834
679.908; -108.654; -794.092; -724.835
680.176; -163.977; -895.091; -941.835
680.445;  -79.025; -346.091; -352.835
680.713;  -19.873;  -58.091;  -23.836
680.982;  -89.997; -523.091; -525.836
681.250; -110.370; -578.091; -507.837
681.518;  -79.418; -534.090; -751.837
681.787;  -14.366; -204.090; -167.837
682.055;  -59.839; -490.090; -422.838
682.323; -155.987; -993.090; -992.838
682.591;   37.239; -216.090; -538.838
682.859;   81.966;    9.911;  -35.839
683.128;   17.443;  232.911;  497.161
683.396; -170.955;-1102.089;-1122.840
683.664;  -40.378; -241.089;   21.160
683.932;   -7.551;  144.911;  -76.840
684.200;  -75.225; -576.088; -320.841
684.468;  -31.223;  -73.088; -124.841
684.736;  -38.871; -214.088; -175.841
685.004; -137.419;-1024.088; -982.842
685.272;  -31.567; -880.088; -774.842
685.540;  -71.491; -499.087; -557.843
685.808;  -76.714; -651.087; -682.843
686.076; -110.912; -894.087; -969.843
686.343;  -51.135; -601.087; -815.844
686.611;   36.942; -195.087; -224.844
686.879;  431.644; -530.086; -553.844
687.147; 3248.370; -483.086; -480.845
687.414;  951.972;  -12.086; -169.845
687.682;   -1.701; -658.086; -757.846
687.950;  313.051;  259.915;  263.154
688.217;    1.053; -792.085; -760.846
688.485;   -8.120; -632.085; -636.847
688.753;  510.931;  -11.085; -102.847
689.020;  174.658; -820.085; -851.847
689.288; -102.765; -853.084; -787.848
689.555;  -18.263; -195.084; -148.848
689.823;  -44.211; -241.084; -345.849
690.090;  -80.435; -546.084; -651.849
690.358; -165.358; -877.084; -897.849
690.625;   11.419;  120.917;   45.150
690.892;  -84.804; -403.083; -369.850
691.160;   -3.902;   72.917;  -35.850
691.427;   -0.175;  141.917;  130.149
691.694; -117.749; -855.083; -929.851
691.962; -147.647;-1177.082;-1060.852
692.229;   18.755;  127.918;   56.148
692.496;   75.707;  130.918;  -49.852
692.763;   17.709; -164.082; -201.853
693.031;  -71.090; -739.082; -716.853
693.298;  -41.963; -509.081; -368.853
693.565;  283.314; -155.081; -163.854
693.832; 1262.991;   -5.081;   -9.854
694.099;  134.793; -643.081; -642.855
694.366;  -52.355; -882.081; -896.855
694.633;  -46.504; -920.080; -633.855
694.900;  745.223; 4367.920; -114.856
695.167;  420.275; -214.080; -380.856
695.434;  112.427; -646.080; -623.856
695.701;  188.854;  121.921;  -61.857
695.968;  474.456; -365.079; -361.857
696.234;  968.732; -415.079; -646.858
696.501;10189.859; -776.079; -614.858
696.768; 5309.761; -554.079; -617.858
697.035;  317.738; -632.078; -667.859
697.302;   30.040; -448.078; -552.859
697.568;   21.491; -458.078; -497.859
697.835;  -50.657; -683.078; -624.860
698.102;  -14.930; -498.078; -407.860
698.368;   75.097;  384.923;  396.139
698.635;  -25.901;  -47.077; -424.861
698.901;  -34.649; -240.077; -348.861
699.168;   58.527; -534.077; -456.862
699.435;   76.354;  -72.077;  -13.862
699.701; -117.219; -868.076; -764.862
699.968;   11.208;  144.924; -441.863
700.234;  -86.565; -783.076; -822.863
700.500;  -61.438; -448.076; -539.864
700.767;   -3.612;   -1.075;   26.136
701.033; -122.510;-1015.075; -963.864
701.299;  -50.558; -450.075; -483.865
701.566;  110.644;  950.925;  763.135
701.832;   34.746;  -31.075;  -76.865
702.098; -101.578;-1054.074;-1034.866
702.365;  -73.126;-1098.074;-1030.866
702.631;  -39.024;-1038.074;-1063.867
702.897; 1316.828; -765.074; -676.867
703.163; 2213.705;  348.926;  254.133
703.429;  160.807; -256.073; -273.868
703.695;  -43.317; -796.073; -792.868
703.961;   19.560; -214.073; -210.868
704.227;  -63.563; -630.073; -725.869
704.493;  132.089;  613.927;  510.131
704.759;  -17.034; -565.072; -540.870
705.025;   33.818; -203.072; -194.870
705.291;  -14.556; -666.072; -562.870
705.557;  190.421;  719.928;   34.129
705.823;   16.773; -742.072; -694.871
706.089;  160.825; -307.071; -326.871
706.355;  349.977; -315.071; -244.872
706.620; 5431.978; -776.071; -729.872
706.886; 7813.505; -309.071; -362.873
707.152;  724.182; -818.070; -973.873
707.418;  -14.941;-1153.070;-1186.873
707.683;   13.911; -550.070; -530.874
707.949;  -40.912; -547.070; -578.874
708.215;   -3.311; -129.070; -207.874
708.480;  -23.109; -520.069; -420.875
708.746;   87.018;   68.931;   28.125
709.011;  -62.205; -578.069; -612.876
709.277;  -67.453; -538.069; -543.876
709.542;  -65.477; -428.069; -387.876
709.808;   -0.075;  -59.068;   89.123
710.073;  -84.898; -577.068; -695.877
710.339;  -16.721; -242.068; -228.877
710.604;   76.681; -780.068; -845.878
710.869;  332.608; -277.068; -366.878
711.135;  -77.016; -715.067; -628.879
711.400;  -72.364; -507.067; -608.879
711.665;  -60.362; -404.067; -479.879
711.931;  -92.735; -661.067; -677.880
712.196; -119.108; -876.067; -954.880
712.461;  104.344; -402.066; -490.880
712.726;  137.770; -727.066; -771.881
712.991;  -83.353; -647.066; -664.881
713.256;  -48.376; -350.066; -332.882
713.521;  -51.899; -417.065; -381.882
713.787;  -54.047; -454.065; -472.882
714.052;  -21.471; -214.065; -400.883
714.317; -112.819;-1045.065; -981.883
714.581; 1025.583; -374.065; -268.883
714.846; 1405.460; -822.064; -888.884
715.111;  138.512;  261.936;  257.116
715.376;  -20.036;  -86.064; -223.885
715.641;  -11.960; -365.064; -367.885
715.906;  274.067;   15.936; -551.885
716.171;  141.269;  221.937;  209.114
716.436;   25.871;  -78.063; -104.886
716.700; -101.627; -818.063; -692.886
716.965; -126.725; -794.063; -807.887
717.230;  -62.624; -339.063; -392.887
717.494;  -30.297;  -40.062; -134.888
717.759;  -82.795; -784.062; -640.888
718.024;    9.282;  269.938;  250.112
718.288;   94.984;  685.938;  395.111
718.553; -138.915; -803.062; -977.889
718.817; -123.463; -883.061; -899.889
719.082;  -43.486; -115.061; -125.890
719.346; -136.584;-1000.061; -947.890
719.611;  -58.307; -300.061; -255.891
719.875;  -91.305; -568.060; -537.891
720.140;  -63.829; -453.060; -603.891
720.404;   39.673; -136.060; -249.892
720.668;  840.625; -475.060; -411.892
720.933;  333.727;  146.940;  137.108
721.197;  -96.221; -667.059; -600.893
721.461; -126.119; -851.059; -826.893
721.725;  -22.643;  -21.059; -250.894
721.990;  -56.441; -284.059; -204.894
722.254;  -40.314;  -26.059; -108.894
722.518;  -74.287; -286.058; -442.895
722.782; -110.735; -743.058; -594.895
723.046;  138.716;  614.942;  570.105
723.310;   20.243;  374.942;  210.104
723.574;  -94.955; -654.058; -614.896
723.838; -114.028; -576.057; -642.897
724.102;  -35.451; -226.057; -239.897
724.366; -142.349;-1032.057; -978.897
724.630;  -99.073; -749.057; -571.898
724.894;  -82.846; -722.057; -514.898
725.158;  -13.394;   38.944; -295.898
725.422;  -69.217; -394.056; -327.899
725.685;  -56.790; -441.056; -349.899
725.949;  -84.213; -566.056; -519.900
726.213;  -86.787; -732.056; -811.900
726.477;  154.615;-1020.055; -933.900
726.740;  151.092; -274.055; -104.901
727.004;  325.844; -384.055; -510.901
727.268; 3279.946; -442.055; -400.901
727.531;  899.922; -961.055; -775.902
727.795;  -55.476; -713.054; -673.902
728.059;  -72.399; -552.054; -557.903
728.322;  -79.197; -841.054; -669.903
728.586;   24.655; -692.054; -701.903
728.849;  -74.318; -695.053; -756.904
729.112; -119.967; -812.053; -912.904
729.376; -121.915; -959.053; -905.904
729.639;  -82.988; -536.053; -536.905
729.903; -104.636; -733.053; -699.905
730.166;  -51.884; -437.052; -399.906
730.429;  -29.433; -317.052; -468.906
730.693;  -75.281; -355.052; -894.906
730.956;  193.271;  810.948;  651.093
731.219;  691.423; -310.052; -103.907
731.482;  123.375;-1003.051; -894.907
731.745;   92.502; -794.051; -935.908
732.009;   22.353;  -30.051;   50.092
732.272; -108.420; -904.051; -771.909
732.535;  -41.868; -300.051; -310.909
732.798; -156.691;-1083.050;-1166.909
733.061;  -51.989; -430.050; -456.910
733.324;    3.463;   31.950; -180.910
733.587;   58.364;  290.950;  365.090
733.850;  -75.509; -973.049;-1050.911
734.113;   47.368;   33.951;   32.089
734.376;   -2.830; -328.049; -447.912
734.639;  228.622; 1188.951; 1011.088
734.901;   70.023; -180.049; -402.912
735.164;  495.925; -883.048; -837.913
735.427; 1295.777; -166.048; -355.913
735.690;  143.729; -205.048; -234.913
735.952;  -37.569; -923.048; -925.914
736.215;  -23.692;-1113.048;-1009.914
736.478;   34.609; -771.047; -774.915
736.740;  210.061;   33.953;  129.085
737.003;  653.613; -658.047; -672.915
737.266; 4002.765;  -94.047;   46.084
737.528;  414.642; -682.047; -660.916
737.791;  318.544; -316.046; -327.916
738.053;  770.120;  465.954;  649.083
738.316;10637.847; -162.046; -136.917
738.578; 7701.074; -770.046; -736.918
738.841;  452.701; -382.046; -446.918
739.103;  169.403; -875.045; -777.918
739.365;  517.479;   79.955;  -69.919
739.628;    0.656; -884.045; -805.919
739.890;  -23.317; -758.045; -710.919
740.152;  -54.865; -692.044; -754.920
740.414;   -8.688; -408.044; -359.920
740.677;  -52.511; -785.044; -634.921
740.939;  -40.310; -587.044; -487.921
741.201;  256.392; -432.044; -572.921
741.463;   55.394; -689.043; -745.922
741.725;    5.396;  -21.043; -199.922
741.987;   62.473;  220.957;  116.078
742.249;    0.475; -751.043; -859.923
742.511;  214.476; -703.043; -794.923
742.773;    3.153; -546.042; -546.924
743.035;  120.155;  796.958;  533.076
743.297;  -56.268; -963.042;-1013.924
743.559;  712.484; -278.042; -262.925
743.821;   70.660; -735.042; -744.925
744.083;   29.812;  -44.041; -149.925
744.345;  -87.111; -869.041; -892.926
744.607;   44.091;   75.959;  122.074
744.868;  -52.582; -490.041; -554.927
745.130; -108.280; -994.041;-1008.927
745.392;   26.421;   -1.040;  -44.927
745.653;  -10.702; -411.040; -378.928
745.915;  140.075;  896.960;  631.072
746.177;   57.827;   35.960;  -43.928
746.438;   -4.071; -428.040; -543.929
746.700;  -45.119; -947.039; -988.929
746.961;   -1.643; -659.039; -740.930
747.223;  145.984; -190.039;  -74.930
747.484;   85.136; -391.039; -471.930
747.746;  152.813;  -23.038; -106.931
748.007;   96.865; -647.038; -689.931
748.269;  293.566; -468.038; -440.931
748.530;  468.818; -852.038; -638.932
748.791;  255.320; -354.038; -420.932
749.053;  427.847;  286.963;  163.067
749.314;  463.674; -236.037; -169.933
749.575;  484.101; -945.037; -905.933
749.836;  848.977; -217.037;   86.066
750.098; 2403.554;  -60.037;  -21.934
750.359;36076.131;  414.964;  555.066
750.620; 9473.258; -121.036; -220.935
750.881; 1027.885; -585.036; -513.935
751.142; 1332.536; -950.036; -938.936
751.403;16371.238; -789.036; -705.936
751.664; 7519.215;-1034.035; -999.936
751.925;  504.617; -175.035; -262.937
752.186;  283.194; -298.035; -278.937
752.447;  146.021; -590.035; -445.937
752.708;   44.947; -532.035; -648.938
752.969;   18.074; -566.034; -576.938
753.230;  -19.424; -777.034; -672.939
753.491;   -4.072; -650.034; -631.939
753.751;   65.955;  109.966;   19.061
754.012;   95.957;  258.967;  181.060
754.273;   47.033; -174.033;  -71.940
754.534;   15.835; -487.033; -580.940
754.794; -102.238; -926.033; -911.941
755.055;  157.539; 1051.967;  881.059
755.316;  -43.984; -700.032; -566.942
755.576;  -25.383; -606.032; -576.942
755.837;  -56.581; -527.032; -695.942
756.097;  -40.129; -530.032; -564.943
756.358;  -86.477; -725.032; -770.943
756.618;  -37.225; -705.031; -641.943
756.879;   -0.898; -254.031; -349.944
757.139; -113.672;-1098.031;-1116.944
757.400;  -60.720; -538.031; -553.945
757.660;  -24.868; -365.031; -401.945
757.920;    8.459; -266.030; -228.945
758.181;  -23.789; -468.030; -351.946
758.441;  -99.312; -870.030; -809.946
758.701;  -24.261; -308.030; -215.946
758.961;  -14.234; -220.030; -278.947
759.222;  -29.507; -574.029; -502.947
759.482;  -88.955; -683.029; -723.948
759.742;  -77.153; -706.029; -547.948
760.002;  -11.477;  -83.029; -143.948
760.262;   41.700;   50.972;  182.051
760.522;  -51.773; -498.028; -574.949
760.782;  -44.221; -738.028; -612.949
761.042;  -33.994; -618.028; -573.950
761.302;   52.633;   55.972;  -18.950
761.562;   32.559; -164.027; -154.951
761.822;   83.136; -710.027; -551.951
762.082;  -43.312;-1104.027;-1093.951
762.342;   71.840; -328.027; -403.952
762.601;   94.867; -567.027; -506.952
762.861;  365.344; -281.026; -207.952
763.121;  404.295; -406.026; -411.953
763.381; 7293.172; -499.026; -485.953
763.640; 8316.474; -139.026; -307.954
763.900;  360.176; -242.026; -203.954
764.160;   91.653; -458.025; -491.954
764.419;   -9.921; -726.025; -782.955
764.679;  -79.594; -795.025; -726.955
764.939;   -4.842; -124.025; -210.955
765.198;  -92.490; -608.025; -563.956
765.458;  -74.163; -710.024; -612.956
765.717;  -87.761; -454.024; -590.957
765.976;  -64.635; -428.024; -411.957
766.236;  -79.808; -475.024; -610.957
766.495;   19.019;  260.977;   73.042
766.755;  -95.129;-1090.023; -987.958
767.014;   10.123; -594.023; -665.958
767.273;  -52.951; -373.023; -397.959
767.533;  -40.299; -228.023; -307.959
767.792;  -29.572; -151.022; -188.960
768.051;  -48.895; -228.022; -276.960
768.310;  -84.543; -546.022; -650.960
768.569;  -20.816; -161.022;    4.039
768.828;  -39.965; -285.022; -363.961
769.088; -120.763;-1050.021; -942.961
769.347;  -81.186; -755.021; -599.962
769.606;  -79.184; -876.021; -857.962
769.865; -121.432;-1016.021;-1033.963
770.124;   -0.505; -411.021; -336.963
770.383;  -62.279; -778.020; -910.963
770.641;    5.848; -398.020; -400.964
770.900;  -83.275; -953.020; -846.964
771.159;  -49.973; -851.020; -951.964
771.418;  -21.721; -917.020; -779.965
771.677;  135.805; -224.019; -293.965
771.936;  121.157; -794.019; -865.966
772.194; 2082.384; -465.019; -437.966
772.453;11053.611; -213.019; -391.966
772.712;  783.288;  416.982;  329.033
772.970;  126.890;   32.982;   63.033
773.229;   85.591;  -22.018;  102.033
773.488;  -95.982; -814.018; -770.968
773.746;   55.870;  296.982;  335.032
774.005;    0.822;  190.983;  -22.969
774.263;   14.524;  243.983;  177.031
774.522;  -49.249; -422.017; -548.969
774.780;  -79.498; -484.017; -417.970
775.039;  -90.146; -551.017; -531.970
775.297;  -18.644; -135.016; -351.970
775.555; -119.992; -489.016; -612.971
775.814; -114.090; -618.016; -570.971
776.072; -125.014; -749.016; -740.971
776.330;  -96.887; -630.016; -520.972
776.589; -132.385; -703.015; -721.972
776.847; -121.158; -645.015; -624.973
777.105; -167.231;-1016.015;-1032.973
777.363;  -84.979; -459.015; -454.973
777.621; -137.328; -660.015; -717.974
777.879;  -21.251;  -42.014;   32.026
778.138; -111.349; -554.014; -717.974
778.396; -100.522; -585.014; -526.975
778.654; -183.745;-1015.014; -970.975
778.912;  -54.768; -269.014; -371.976
779.170; -134.917; -880.013; -803.976
779.427; -140.565; -922.013; -897.976
779.685; -136.463; -880.013; -832.977
779.943;  -84.336; -654.013; -593.977
780.201; -160.409; -964.012; -883.978
780.459; -108.608; -651.012; -610.978
780.717;  -89.706; -440.012; -390.978
780.974;  -99.429; -449.012; -490.979
781.232;  -71.827; -358.012; -338.979
781.490;  -70.175; -551.011; -472.979
781.747; -109.398; -555.011; -476.980
782.005;   22.328;  462.989;  254.020
782.263; -171.470; -542.011;-1004.981
782.520;  -93.418; -326.011; -501.981
782.778; -172.416;-1013.010;-1051.981
783.035; -168.964; -962.010; -938.982
783.293;  -66.837; -248.010; -206.982
783.550;  -50.636; -134.010; -198.982
783.808; -137.184; -764.010; -776.983
784.065; -155.507; -745.009; -874.983
784.322;  -45.555;   25.991;  -86.984
784.580; -137.978; -915.009; -771.984
784.837;  -92.252; -392.009; -466.984
785.094; -130.075; -783.009; -762.985
785.352;  -71.298; -304.008; -404.985
785.609; -109.221; -934.008; -839.985
785.866;  -83.644; -345.008; -401.986
786.123;  -66.142; -639.008; -583.986
786.380;  -98.216; -665.008; -604.987
786.637;  -46.714; -225.007; -380.987
786.895;  -19.962; -456.007; -543.987
787.152;  -39.210; -135.007; -267.988
787.409;  -46.558; -123.007; -225.988
787.666;  -91.282; -299.006; -378.988
787.923; -120.630; -616.006; -695.989
788.179;  -92.553; -551.006; -584.989
788.436; -121.826; -585.006; -585.990
788.693;  -28.324;  -92.006;  -87.990
788.950;  129.753; -125.005; -112.990
789.207;  242.154; -381.005; -372.991
789.464;  -59.894; -161.005; -301.991
789.720;    1.058;  150.995;  110.009
789.977; -165.690;-1003.005; -671.992
790.234;  -33.463;   44.996;  -66.992
790.490; -157.661; -884.004;-1031.993
790.747;  -25.035;  -85.004;   22.007
791.004;  -34.233; -426.004; -348.993
791.260;  -74.081; -430.004; -560.994
791.517;  -91.079; -843.003; -788.994
791.773;  -47.202; -379.003; -342.994
792.030; -111.851; -596.003; -660.995
792.286; -107.974; -686.003; -636.995
792.543;  -36.422;  -74.002; -159.995
792.799;  -38.945; -584.002; -382.996
793.055; -171.493;-1179.002;-1210.996
793.312;  -92.516; -827.002; -816.997
793.568;  -62.515; -746.002; -599.997
793.824;   13.012; -226.001; -284.997
794.081;   13.064; -447.001; -508.998
794.337;   66.966; -664.001; -561.998
794.593; 1258.718; -319.001; -271.999
794.849; 6616.045; -746.001; -772.999
795.105;  344.996; -270.000; -261.999
795.361;   27.373; -490.000; -457.000
795.617;  -64.175; -875.000; -945.000
795.873;  -54.550; -360.000; -407.000
796.129;  -39.250; -368.000; -306.000
796.385;  -11.975; -124.000; -156.000
796.641;   56.800;  412.000;  550.000
796.897;  -73.850; -666.000; -635.000
797.153;   42.225;  453.000;  357.000
797.409;  -92.450; -785.000; -868.000
797.665;  -81.150; -625.000; -732.000
797.921;  -69.975; -775.000; -762.000
798.176;  -50.800; -744.000; -747.000
798.432;  -47.025; -824.000; -596.000
798.688;  -78.850;-1174.000;-1078.000
798.943;   76.275; -165.000; -147.000
799.199;   -8.650;-1005.000; -959.000
799.455;  222.225;  369.000;  316.000
799.710;  130.300; -813.000; -380.000
799.966;  286.550; -162.000; -160.000
800.221;  480.575; -638.000; -721.000
800.477;10157.550; -743.000; -710.000
800.732; 9479.550; -773.000; -800.000
800.988;  630.225;  205.000;  -19.000
801.243; 1711.350; -454.000; -344.000
801.498; 7864.725; -814.000; -739.000
801.754;  461.150; -289.000; -163.000
802.009;   83.975; -257.000; -335.000
802.264;  -58.025; -967.000;-1033.000
802.520;   42.175;  222.000;   -3.000
802.775;  -51.975; -524.000; -359.000
803.030;   64.025;  395.000;  356.000
803.285; -120.425; -840.000; -903.000
803.540;  -48.525; -686.000; -699.000
803.795;  -58.225; -648.000; -583.000
804.051;  -34.350; -279.000; -346.000
804.306;   13.250;  168.000;  128.000
804.561;  132.200;  451.000;  362.000
804.816;  113.300;  714.000;  861.000
805.071;   10.050; -185.000; -280.000
805.325;  213.000; -257.000; -427.000
805.580; -108.775; -841.000; -877.000
805.835;  -25.425; -204.000; -297.000
806.090;  -80.825; -760.000; -676.000
806.345;  -15.225; -344.000; -264.000
806.600;  -38.525; -549.000; -632.000
806.854;  -48.525; -408.000; -538.000
807.109;   -6.550; -493.000; -577.000
807.364;   -9.600; -407.000; -328.000
807.618;    0.150; -415.000; -381.000
807.873;   58.375; -470.000; -494.000
808.128;  103.850; -257.000; -518.000
808.382;   99.425; -224.000; -332.000
808.637;   70.625; -440.000; -511.000
808.891;  183.825; -257.000; -180.000
809.146;   91.275; -902.000; -794.000
809.400;  233.125; -848.000; -923.000
809.654;  337.900; -779.000; -551.000
809.909;  477.950; -841.000; -927.000
810.163; 6295.150; -813.000; -651.000
810.418;17293.575; -940.000; -861.000
810.672; 1074.575; -685.000; -690.000
810.926;  725.975; -993.000; -973.000
811.180; 1362.400; -439.000; -372.000
811.434;31220.700;  240.000;  135.000
811.689;13363.400; -231.000; -365.000
811.943;  645.375; -936.000; -953.000
812.197;  340.475; -893.000; -671.000
812.451;  122.775; -379.000; -514.000
812.705;  -22.350; -809.000; -619.000
812.959;  -16.100; -263.000; -388.000
813.213;   -6.500; -283.000; -209.000
813.467;   62.600;  470.000;  253.000
813.721;  -91.875; -764.000; -792.000
813.975; -123.500; -826.000; -877.000
814.229;   46.325;  430.000;  353.000
814.482;  -79.500; -517.000; -566.000
814.736; -106.125; -766.000; -744.000
814.990; -126.175; -779.000; -872.000
815.244;  -47.850; -228.000; -285.000
815.497;  -99.950; -636.000; -601.000
815.751;  -19.900; -141.000;   82.000
816.005;  -99.350; -470.000; -586.000
816.258;  -70.750; -510.000; -363.000
816.512; -116.200; -693.000; -610.000
816.766;  -10.550;  121.000;  157.000
817.019;   25.550;  148.000;  149.000
817.273; -119.050;-1000.000; -802.000
817.526;  -36.050; -206.000; -173.000
817.779;  -43.350;-1049.000; -960.000
818.033;  -77.500; -693.000; -807.000
818.286; -117.150; -725.000; -792.000
818.540; -104.450; -403.000; -403.000
818.793;  -65.700; -402.000; -489.000
819.046; -102.275; -582.000; -520.000
819.299;  -36.600; -157.000; -166.000
819.553; -121.975; -552.000; -592.000
819.806; -157.950;-1016.000; -838.000
820.059;  -65.100; -334.000; -354.000
820.312;   10.500;  152.000;  185.000
820.565;   -6.425;  110.000;  -27.000
820.818;  -40.175;  -59.000; -173.000
821.071; -170.450;-1041.000; -957.000
821.324; -100.700; -536.000; -540.000
821.577;  -96.225; -457.000; -483.000
821.830;  -59.675; -270.000; -172.000
822.083; -146.125; -733.000; -288.000
822.336;  -44.425; -261.000; -167.000
822.589; -147.775; -805.000; -688.000
822.842; -142.125; -875.000; -770.000
823.094; -175.775;-1076.000;-1114.000
823.347; -135.075; -925.000; -729.000
823.600;   -0.425;  402.000;  187.000
823.853;  -36.175; -311.000; -267.000
824.105;  -77.525; -331.000; -575.000
824.358; -100.875; -617.000; -716.000
824.611;    4.950;  234.000;   40.000
824.863;  -55.525; -612.000; -591.000
825.116;   33.750;  -33.000;   27.000
825.368;   69.800; -366.000; -372.000
825.621;  160.125; -186.000; -240.000
825.873;  100.800; -704.000; -737.000
826.126;  546.950; -669.000; -641.000
826.378;11377.150; -389.000; -505.000
826.630; 2960.575; -890.000; -898.000
826.883;   38.350; -754.000; -693.000
827.135;   29.125; -279.000; -270.000
827.387; -119.600; -893.000; -839.000
827.639;  -19.300;  -86.000;   32.000
827.892; -124.075; -742.000; -582.000
828.144; -150.175; -848.000; -804.000
828.396;  -37.175;  104.000;  -80.000
828.648; -107.775; -440.000; -333.000
828.900; -151.875; -702.000; -795.000
829.152; -129.975; -684.000; -683.000
829.404;  -59.675; -215.000; -267.000
829.656;  -63.375;  321.000;  214.000
829.908;  -16.925;  393.000;  229.000
830.160; -165.150;-1064.000;-1047.000
830.412;  -95.425; -481.000; -430.000
830.664; -124.750; -557.000; -665.000
830.916;  -76.125; -268.000; -206.000
831.167; -179.775;-1073.000; -951.000
831.419; -106.675; -623.000; -566.000
831.671; -162.625; -764.000; -809.000
831.923;  -95.850; -311.000; -447.000
832.174;  -73.750; -273.000; -331.000
832.426; -106.725; -493.000; -582.000
832.678; -188.250;-1043.000;-1091.000
832.929; -157.400; -947.000; -935.000
833.181;  -63.725; -575.000; -677.000
833.432;  -49.125;  -59.000; -186.000
833.684;  -27.550;  112.000;  -27.000
833.935; -116.600; -610.000; -566.000
834.187; -139.125; -829.000; -823.000
834.438;  -35.275;  -58.000;  -25.000
834.689;  -62.625; -255.000; -123.000
834.941;  -60.075; -343.000; -244.000
835.192; -105.175; -590.000; -533.000
835.443;  -90.275; -419.000; -506.000
835.695;  -23.950;  138.000;  -16.000
835.946;  -76.625; -608.000; -378.000
836.197; -109.500; -599.000; -622.000
836.448;  -91.850; -528.000; -395.000
836.699;  -54.775; -253.000; -341.000
836.950;    6.450;   72.000;    7.000
837.201; -147.975;-1003.000; -987.000
837.452;  -38.150; -356.000; -170.000
837.703; -120.950; -791.000; -737.000
837.954;  -35.375; -205.000; -365.000
838.205;  -88.175;-1029.000;-1008.000
838.456;  151.825; -196.000; -282.000
838.707;   -2.775; -423.000; -519.000
838.958;    7.200; -634.000; -647.000
839.209;  270.225;   18.000;   40.000
839.460;  108.050; -439.000; -201.000
839.710;  167.825; -135.000; -297.000
839.961;  415.150;  730.000;  612.000
840.212;  324.800; -382.000; -497.000
840.462; 1101.425; -328.000; -277.000
840.713;17430.225; -571.000; -536.000
840.964; 7538.475;  -62.000; -143.000
841.214;  497.550; -384.000; -624.000
841.465;  574.225; -214.000; -141.000
841.715;  490.750; -417.000; -380.000
841.966;  645.125; -746.000; -685.000
842.216; 8552.375; -330.000; -431.000
842.466;34652.575; -169.000; -313.000
842.717; 2030.850; -964.000; -952.000
842.967;  322.050; -635.000; -641.000
843.217;  259.475;   20.000;   28.000
843.468;   70.875; -104.000; -132.000
843.718;  -50.900; -718.000; -726.000
843.968;  -74.150; -837.000; -765.000
844.218;   11.175; -315.000; -262.000
844.469;  -45.100; -577.000; -561.000
844.719; -107.975; -537.000; -682.000
844.969; -107.350; -550.000; -580.000
845.219; -139.700; -814.000; -862.000
845.469;  -64.550; -392.000; -342.000
845.719; -145.975; -792.000; -884.000
845.969;  -15.475;  119.000;  174.000
846.219; -133.650; -738.000; -720.000
846.469;   34.900;  464.000;  432.000
846.718;  -58.800; -115.000;   31.000
846.968; -134.575; -827.000; -827.000
847.218;  -58.650; -224.000; -371.000
847.468; -105.100; -586.000; -555.000
847.718; -142.275; -827.000; -798.000
847.967; -119.450; -826.000; -915.000
848.217;  -92.450; -449.000; -569.000
848.467;  -66.350; -405.000; -376.000
848.716; -124.725; -708.000; -725.000
848.966;   -5.000; -372.000; -358.000
849.215;  -73.475; -428.000; -419.000
849.465;  -94.500; -785.000; -615.000
849.714; -146.225;-1132.000;-1150.000
849.964;  -66.175; -551.000; -613.000
850.213;  -36.400; -393.000; -355.000
850.463;   75.700;  137.000;  340.000
850.712;  -15.125; -542.000; -567.000
850.961;   23.150; -739.000; -678.000
851.211;  100.100; -513.000; -504.000
851.460;  155.150; -635.000; -650.000
851.709;  551.525;  -25.000;   18.000
851.958; 9909.900; -912.000; -750.000
852.208;12977.500; -859.000; -879.000
852.457;  468.850; -181.000;  -13.000
852.706;   53.825; -791.000; -823.000
852.955;   10.325; -507.000; -528.000
853.204;  -66.375; -521.000; -461.000
853.453;  -83.925; -418.000; -458.000
853.702; -139.525; -660.000; -750.000
853.951;  -96.500; -532.000; -520.000
854.200; -118.850; -613.000; -562.000
854.449; -126.825; -695.000; -661.000
854.698;  -94.200; -340.000; -279.000
854.946;  -75.400; -181.000; -284.000
855.195; -163.100; -843.000; -868.000
855.444;  -80.275; -395.000; -420.000
855.693; -132.875; -345.000; -432.000
855.941; -109.950; -387.000; -516.000
856.190;  -53.625; -256.000; -382.000
856.439; -126.775; -652.000; -703.000
856.687;  -71.425;  -99.000;  -72.000
856.936; -101.100; -621.000; -323.000
857.184; -193.800;-1067.000;-1020.000
857.433; -104.275; -423.000; -512.000
857.681; -156.475; -989.000; -953.000
857.930;  -88.150; -282.000; -433.000
858.178; -170.800; -856.000; -929.000
858.427; -146.000; -802.000; -781.000
858.675; -129.700; -377.000; -544.000
858.923; -102.925; -527.000; -819.000
859.172; -190.275;-1094.000;-1070.000
859.420;  -85.750; -339.000; -239.000
859.668; -139.550; -624.000; -628.000
859.916;  -16.125;  109.000;  115.000
860.164; -119.175; -699.000; -603.000
860.413;  263.875; -878.000; -696.000
860.661;  211.000; -709.000; -577.000
860.909;  -86.600; -339.000; -325.000
861.157;  -95.800; -277.000; -444.000
861.405; -131.625; -534.000; -670.000
861.653;   -3.225;  310.000;  310.000
861.901;  173.525; -543.000; -613.000
862.149;    7.900; -801.000; -824.000
862.396;  -71.800; -297.000; -187.000
862.644;  -89.700; -368.000; -347.000
862.892;  -36.925;   98.000;  138.000
863.140; -119.400; -549.000; -530.000
863.388; -155.675; -815.000; -759.000
863.635; -137.950; -642.000; -601.000
863.883;  -18.200;  231.000;  190.000
864.131; -115.725; -288.000; -357.000
864.378; -133.450; -675.000; -540.000
864.626; -102.900; -347.000; -415.000
864.873; -126.275; -556.000; -505.000
865.121; -154.050; -714.000; -799.000
865.368;  -43.125; -173.000;   75.000
865.616;  -54.700;  -33.000;  -40.000
865.863;  -69.050; -462.000; -506.000
866.111; -114.600; -795.000; -824.000
866.358;   30.750; -426.000; -420.000
866.605; 2184.900;  -64.000; -804.000
866.853; 2385.500; -621.000; -537.000
867.100;  -46.350; -728.000; -775.000
867.347;  -87.250; -672.000; -611.000
867.594;  -88.850; -740.000; -714.000
867.841;   93.150;   97.000;   17.000
868.089; -157.250; -746.000; -698.000
868.336; -100.450; -477.000; -420.000
868.583; -150.875; -637.000; -741.000
868.830;  -64.400; -131.000; -170.000
869.077; -163.450; -859.000; -787.000
869.324; -118.925; -502.000; -458.000
869.571; -140.075; -398.000; -430.000
869.818; -127.825; -485.000; -439.000
870.065; -110.575; -439.000; -513.000
870.311; -117.375; -456.000; -542.000
870.558; -106.425; -332.000; -311.000
870.805; -101.400; -320.000; -384.000
871.052; -111.750; -494.000; -369.000
871.298;  -61.925; -204.000; -131.000
871.545;  -80.450; -151.000; -185.000
871.792;  -79.275; -173.000; -222.000
872.038;  -81.275;   43.000; -126.000
872.285; -110.425; -496.000; -387.000
872.532; -107.275; -357.000; -387.000
872.778;   12.225;  556.000;  403.000
873.025; -100.375; -384.000; -359.000
873.271;   11.625;  501.000;  578.000
873.517;  -31.825; -133.000; -209.000
873.764;  -31.825; -193.000;  -80.000
874.010;  -79.800; -143.000; -230.000
874.257;  -42.625;  123.000;   90.000
874.503; -136.725; -579.000; -479.000
874.749;  -66.675;   31.000;  275.000
874.995;  -81.150;  -80.000;  -20.000
875.242; -134.800; -540.000; -478.000
875.488; -108.275; -414.000; -439.000
875.734;  -45.075; -106.000; -234.000
875.980;  160.825; -872.000;-1032.000
876.226;  367.950; -157.000; -255.000
876.472;  -20.850;  343.000;  237.000
876.718;  -35.575;  184.000;  158.000
876.964;  -47.575;   56.000;   55.000
877.210; -151.850; -547.000; -677.000
877.456; -135.775; -630.000; -557.000
877.702; -159.800; -821.000; -832.000
877.948; -118.475; -377.000; -497.000
878.193;   13.325;  361.000;  255.000
878.439; -108.275; -487.000; -472.000
878.685;  -96.125; -272.000; -343.000
878.931; -131.825; -618.000; -676.000
879.176;  -80.675; -201.000; -201.000
879.422; -184.550; -933.000; -820.000
879.668;   31.775;   10.000;   79.000
879.913;  126.075;   53.000;  137.000
880.159;  -56.800; -112.000;  -17.000
880.404;  -63.700; -152.000; -162.000
880.650;  -46.700;   91.000;  141.000
880.895; -166.775; -670.000; -710.000
881.141; -121.550; -454.000; -428.000
881.386; -151.000; -503.000; -658.000
881.631;  -80.900; -311.000; -166.000
881.877;  -41.600;  112.000;  -13.000
882.122; -136.475; -684.000; -600.000
882.367;  -97.300; -136.000; -186.000
882.612;  -77.475;  -80.000; -176.000
882.858; -172.525; -877.000; -823.000
883.103;  -88.450; -297.000; -267.000
883.348; -162.300; -759.000; -852.000
883.593; -139.075; -677.000; -602.000
883.838;  -74.900; -311.000;  -24.000
884.083;   21.375;  353.000;  288.000
884.328;  -94.525; -564.000; -545.000
884.573;  -52.675; -196.000; -143.000
884.818;  164.300; -694.000; -531.000
885.063;  178.475; -348.000; -315.000
885.308; -117.725; -475.000; -398.000
885.553;  -21.875;  245.000;  325.000
885.797; -129.650; -545.000; -615.000
886.042;  -57.700;    8.000;   58.000
886.287;  -96.750; -253.000; -211.000
886.532;  -47.025;   26.000;  204.000
886.776; -110.825; -407.000; -525.000
887.021; -135.250; -621.000; -574.000
887.265; -165.725; -685.000; -689.000
887.510; -127.250; -557.000; -496.000
887.755; -106.775; -194.000; -164.000
887.999; -136.650; -552.000; -575.000
888.244;  -70.075;  -58.000;  161.000
888.488;    0.975;  371.000;  393.000
888.732; -133.250; -368.000; -520.000
888.977; -115.425; -622.000; -567.000
889.221; -158.375; -683.000; -659.000
889.465; -123.000; -422.000; -566.000
889.710;  -81.075;  -56.000; -299.000
889.954;    2.450;  579.000;  467.000
890.198; -168.050; -584.000; -707.000
890.442; -140.975; -716.000; -712.000
890.687; -172.425; -800.000; -753.000
890.931;  -96.100; -273.000; -210.000
891.175; -140.500; -502.000; -500.000
891.419;  -73.600; -105.000; -110.000
891.663;  -94.350; -239.000; -112.000
891.907; -163.600; -801.000; -545.000
892.151; -189.750; -920.000; -815.000
892.395; -103.275; -274.000; -387.000
892.638;  -24.375;  408.000;  291.000
892.882; -170.600; -780.000; -867.000
893.126;   -3.700;  758.000;  558.000
893.370;  -87.800; -167.000; -168.000
893.614; -153.300; -714.000; -715.000
893.857;  -95.075; -183.000; -197.000
894.101; -148.475; -527.000; -631.000
894.345;  -71.125;  300.000;  150.000
894.588;   -2.825;  569.000;  380.000
894.832;  -74.625; -178.000;  -84.000
895.075; -101.175;   15.000;  -92.000
895.319; -128.450; -552.000; -420.000
895.563; -133.075; -413.000; -353.000
895.806; -162.475; -628.000; -741.000
896.049;  -58.950; -576.000; -368.000
896.293;   97.375;  527.000;  405.000
896.536;  -84.450; -465.000; -468.000
896.779;  -53.050; -149.000;   -1.000
897.023; -136.475; -751.000; -714.000
897.266;  -32.475;  325.000;  269.000
897.509; -184.175; -900.000; -901.000
897.752;  -46.150;  149.000;  171.000
897.996; -195.200; -972.000; -864.000
898.239;  -34.325;  168.000;  102.000
898.482; -126.050; -431.000; -453.000
898.725;  -42.800;  101.000;   53.000
898.968; -160.625; -609.000; -744.000
899.211; -103.400; -513.000; -361.000
899.454; -115.800; -633.000; -539.000
899.697;  -75.700;   90.000;  -43.000
899.940; -172.025; -761.000; -757.000
900.182; -103.875; -335.000; -405.000
900.425;  -90.325; -150.000; -298.000
900.668;  -26.550;  491.000;  350.000
900.911; -117.825; -292.000; -345.000
901.154;  -62.025;  141.000;   -3.000
901.396; -135.375; -407.000; -412.000
901.639; -130.475; -430.000; -496.000
901.882; -188.250; -790.000; -809.000
902.124;  -76.575;  -29.000; -143.000
902.367; -132.275; -315.000; -361.000
902.609; -134.850; -476.000; -453.000
902.852; -101.000; -108.000; -260.000
903.094; -114.600; -458.000; -337.000
903.337;  -61.600;  -26.000;   53.000
903.579; -113.725; -228.000; -441.000
903.821; -155.725; -597.000; -744.000
904.064;  -51.225;   85.000;  127.000
904.306;  -93.625; -126.000; -166.000
904.548; -111.725; -152.000; -366.000
904.790; -110.625; -195.000; -340.000
905.033; -125.600; -625.000; -577.000
905.275; -142.050; -513.000; -524.000
905.517;   39.400;  468.000;  256.000
905.759;  -76.350; -667.000; -761.000
906.001;  -98.100; -322.000; -369.000
906.243;  -83.075; -162.000; -224.000
906.485;   99.575; -265.000; -207.000
906.727;  107.650; -499.000; -542.000
906.969;  -28.975;  -30.000; -135.000
907.211;  100.700; -316.000; -382.000
907.453;  260.875; -188.000; -237.000
907.695;   19.125; -158.000; -385.000
907.936;   46.275;  818.000;  706.000
908.178;  -67.450;   92.000; -135.000
908.420;  -67.350; -111.000; -162.000
908.662; -132.125; -633.000; -682.000
908.903;  -84.800; -208.000; -123.000
909.145;  -53.750; -240.000; -305.000
909.386;    3.400;  315.000;  280.000
909.628;   34.575;  363.000;  397.000
909.870;    2.875;   29.000;  264.000
910.111; -102.725; -809.000; -949.000
910.353;   10.250; -123.000; -161.000
910.594;   12.350; -574.000; -606.000
910.835;   78.700; -265.000; -326.000
911.077;  141.325; -503.000; -604.000
911.318;  289.975; -505.000; -471.000
911.559;  434.650; -577.000; -880.000
911.801; 1322.250; -284.000; -280.000
912.042;10047.375;  -50.000; -159.000
912.283;27165.325;  404.000;  371.000
912.524; 4372.450; -396.000; -457.000
912.765;  504.850; -193.000;   79.000
913.006;  213.125; -307.000; -338.000
913.247;   55.100; -270.000; -290.000
913.488;  -21.650;  -43.000;   30.000
913.729;  -83.300; -373.000; -373.000
913.970;  -88.325;  -96.000; -292.000
914.211;  -67.575; -160.000; -198.000
914.452;  -61.175; -118.000;  -11.000
914.693;    4.300;  510.000;  592.000
914.934;   -3.250;  510.000;  440.000
915.175;  -63.550;   53.000;  -95.000
915.415;  -83.250; -137.000;   27.000
915.656;  -61.550;  -28.000;  192.000
915.897; -100.900; -252.000;  -82.000
916.137;  -75.100;   74.000;   -9.000
916.378; -137.850; -573.000; -517.000
916.619;  -92.050; -159.000;  -63.000
916.859;  -27.375;  303.000;  330.000
917.100;  128.650; 1655.000; 1070.000
917.340;   44.525;  930.000;  728.000
917.581;   54.900;  965.000;  789.000
917.821;  -29.975; -171.000;  143.000
918.061;    9.300; -199.000;  -72.000
918.302;  -48.575; -152.000; -211.000
918.542;  -34.975;  -22.000;    3.000
918.782;   27.675;  369.000;  377.000
919.023;  122.200;  360.000;  427.000
919.263; 1719.750; 8131.000;  202.000
919.503; 1139.300; -137.000;  -54.000
919.743;  592.200;  390.000;  266.000
919.983;  260.500; -134.000;  -26.000
920.223;   65.200;  135.000;   14.000
920.463;  138.050;  631.000;  554.000
920.703;  124.375;   84.000;   39.000
920.943;  164.975; -110.000;   90.000
921.183;  210.925; -414.000; -405.000
921.423;  487.275;  307.000;  546.000
921.663;  701.075; -174.000; -257.000
921.903; 1581.925;  237.000;  173.000
922.143; 8447.450;  372.000;  389.000
922.383;33178.325;  158.000;  115.000
922.622;11848.600; -120.000;  -15.000
922.862; 1239.800;  796.000;  785.000
923.102;  466.650;  -51.000;   33.000
923.341;  181.150;   59.000;   74.000
923.581;   66.550;  450.000;  360.000
923.821;   20.875;  301.000;  398.000
924.060;   -6.300;  351.000;  193.000
924.300;  -53.000;  -16.000; -128.000
924.539;  -21.300;  584.000;  473.000
924.779;   15.050;  812.000;  597.000
925.018;  -61.875;  247.000;  353.000
925.257;    1.925;  595.000;  666.000
925.497;  -33.425;  447.000;  412.000
925.736;  -78.075;  -35.000;  102.000
925.975;  -12.300;  687.000;  669.000
926.214;   29.800;  907.000;  850.000
926.454;   -2.600;  706.000;  757.000
926.693;  -44.075;  419.000;  543.000
926.932;    8.325; 1021.000;  825.000
927.171;   63.675; 1107.000; 1044.000
927.410;   32.200; 1144.000;  967.000
927.649;   36.575;  924.000;  742.000
927.888;  -14.400;  590.000;  564.000
928.127;   -4.725;  680.000;  678.000
928.366;   27.350;  842.000;  826.000
928.605;   36.625;  831.000;  737.000
928.844;  217.075; 1451.000; 1393.000
929.083;  608.100;  770.000;  613.000
929.321;  340.875; 1335.000; 1359.000
929.560;  108.375; 1158.000; 1122.000
929.799;  -30.900;  574.000;  475.000
930.038;   80.975; 1025.000; 1394.000
930.276;  -61.900;  334.000;  397.000
930.515;   -8.050;  827.000;  681.000
930.753;  -29.000;  614.000;  589.000
930.992;  -17.875;  664.000;  717.000
931.230;   -4.250;  847.000;  847.000
931.469;  162.200; 2162.000;  892.000
931.707;   61.500;  840.000;  751.000
931.946;   73.750; 1278.000; 1344.000
932.184;   40.650; 1437.000; 1175.000
932.423;   56.250; 1265.000;  963.000
932.661;   84.200; 1296.000; 1428.000
932.899;   29.125;  987.000;  821.000
933.137;    2.700;  754.000;  564.000
933.376;  141.400; 1664.000; 1335.000
933.614;  149.650; 1759.000; 1196.000
933.852;   66.950; 1357.000; 1171.000
934.090;  126.325; 1722.000; 1747.000
934.328;  114.275; 1252.000; 1457.000
934.566;   88.625; 1431.000; 1110.000
934.804;  135.025; 1263.000; 1309.000
935.042;  448.225; 1861.000; 1850.000
935.280; 1780.775; 2088.000; 2063.000
935.518; 1731.550; 2113.000; 2007.000
935.756;  383.075; 2481.000; 2316.000
935.994;  166.650; 1808.000; 1751.000
936.231;  348.900; 2890.000; 2950.000
936.469;  183.575; 2367.000; 2378.000
936.707;  155.475; 2220.000; 2167.000
936.945;  237.350; 2825.000; 2882.000
937.182;  203.675; 2679.000; 2741.000
937.420;  303.125; 3602.000; 3031.000
937.657;  408.425; 3365.000; 3478.000
937.895;  346.225; 3331.000; 3488.000
938.133;  316.200; 3540.000; 3528.000
938.370;  334.525; 3896.000; 4191.000
938.607;  389.825; 4488.000; 4205.000
938.845;  539.500; 5587.000; 5549.000
939.082;  491.875; 5387.000; 5177.000
939.320;  532.200; 5799.000; 5728.000
939.557;  638.050; 6549.000; 6491.000
939.794;  703.200; 7285.000; 7097.000
940.031;  922.225; 8421.000; 8368.000
940.269; 1113.575; 9552.000; 9107.000
940.506; 1117.725;10901.000;10507.000

