
Integration time [ms]: 100.000
Averaging Nr. [scans]: 40
Smoothing Nr. [pixels]: 0
Data measured with spectrometer [name]: 2101013U2
Wave   ;Sample   ;Dark     ;Reference
[nm]   ;[counts] ;[counts] ;[counts] 

394.013;   46.618; -450.257; -315.536
394.305;  198.666; -461.258; -419.536
394.596; 1192.487; -676.269; -527.514
394.887; 2890.404; -796.268; -654.518
395.178; 1071.084;  145.736;   11.476
395.470;   71.671; -210.263; -356.526
395.761;  191.019;  305.734;  394.479
396.052;  304.285; -545.284; -306.489
396.343;  297.556; -557.276; -454.503
396.634;   97.574; -200.279; -290.497
396.926;   81.526; -618.268; -565.517
397.217;   87.485;   11.725;  -17.504
397.508;   31.451; -366.273; -154.507
397.799;   46.249; -555.279; -571.497
398.090;   -3.057; -973.280; -902.495
398.381;  113.534;   11.708;  -11.473
398.672;  -13.215; -585.292; -742.473
398.963;   59.305; -348.279; -373.498
399.254;   92.444;   54.709; -209.475
399.545;  -47.810;-1017.266; -883.520
399.836;   66.594; -407.277; -343.501
400.127;   45.335; -205.295; -209.468
400.418;   29.021; -423.274; -392.506
400.709;   56.680; -359.281; -333.493
401.000;   28.123; -268.291; -309.476
401.290;  100.446;  225.698;  115.545
401.581;   64.642; -166.286; -228.485
401.872;   18.682; -542.298; -486.462
402.163;   54.177; -313.296; -252.467
402.454;   84.545; -123.291; -163.475
402.744;   58.319; -844.297; -813.465
403.035;  379.225; -226.293;  -86.471
403.326;  524.613; -366.292; -384.474
403.617;  356.676;  204.701;  165.539
403.907;  268.666; -593.283; -679.490
404.198; 2525.549; -545.307; -599.446
404.489; 6572.896; -618.283; -588.491
404.779; 2094.474; -618.302; -660.456
405.070;  223.953;  -67.304; -174.451
405.360;  347.152; -259.293; -238.472
405.651;  371.436;  125.699;   98.542
405.942;  175.638;  209.714;  127.516
406.232;  225.002; -432.285; -413.487
406.523;  405.070;  641.706;  758.530
406.813;   77.965; -579.286; -644.484
407.104;  287.283;  261.708;  144.527
407.394;  146.452; -604.299; -591.462
407.685;  155.351;  336.715;  222.513
407.975;   51.144; -400.283; -382.490
408.265;  102.710; -134.289; -190.478
408.556;   55.192; -472.291; -459.475
408.846;  161.996;  474.706;  429.530
409.137;   74.418;   -1.288; -216.480
409.427;   53.202; -193.285; -271.487
409.717;   37.154; -776.273; -692.508
410.007;  142.946;    4.715; -170.486
410.298;   69.438; -360.295; -342.469
410.588;   57.199; -495.285; -510.486
410.878;   31.929; -792.287; -873.482
411.168;  112.084; -481.298; -478.463
411.459;  104.914; -295.283; -242.489
411.749;   69.665; -609.292; -507.474
412.039;   50.891; -755.289; -386.480
412.329;  197.262;   40.722;  132.501
412.619;  200.790;  -62.286; -148.485
412.909;  352.412;  639.711;  594.521
413.199;  309.243; -130.280; -251.495
413.490;  381.428;  521.710;  352.523
413.780;  134.048;-1013.279; -913.496
414.070;  316.382;  -46.276;  235.497
414.360;  358.008; -729.278; -666.498
414.650;  430.125; -726.288; -688.482
414.940;  555.572; -538.280; -441.496
415.230;  931.947;   50.712;   74.519
415.520; 6265.011;  155.730;   66.486
415.809;25074.855; -305.281; -125.493
416.099;19290.022; -388.277; -229.501
416.389; 5502.668;  435.726;  236.494
416.679; 3190.449;   91.738;   85.473
416.969;  554.509; -527.287; -503.483
417.259;  477.524;  341.721;  171.503
417.549;  708.979;  522.718;  318.508
417.838; 1725.678; -205.268; -147.518
418.128; 5815.108;  650.710;  492.522
418.418; 4847.111; -491.272; -579.509
418.708; 3253.019;    9.726;  -48.506
418.997;12369.989; -474.275; -480.505
419.287;12785.050; -733.273; -790.507
419.577;12274.238; -160.283; -123.489
419.866;40570.820; -588.277; -498.501
420.156;41034.307; -242.270;  -55.513
420.446; 7173.567; -112.263;  -26.526
420.735;  811.426; -376.271; -446.512
421.025;  812.683; 1830.722;  315.502
421.314;  637.124; -203.271; -226.512
421.604; 1241.246;   89.732;  233.484
421.893;  692.420; -705.271; -602.511
422.183;  233.267; -487.263; -461.526
422.472;  383.921;  -36.271; -107.511
422.762;  443.546; -416.266; -379.521
423.051;  251.382; -916.276; -916.503
423.341;  320.552; -491.273; -439.507
423.630;  404.852; -121.265;   15.477
423.919;  391.014;   58.725;   49.495
424.209;  389.073;  -31.263;   56.473
424.498;  508.750;   68.732;  161.483
424.787; 1129.432; -535.267; -601.518
425.077; 3486.301;   34.735;   29.478
425.366; 4700.828; -734.262; -744.528
425.655;10475.028;  639.727;  259.493
425.945;23716.909; -313.247; -268.554
426.234;12896.901;  117.741;  300.467
426.523; 5295.681;  -86.259; -350.534
426.812; 7270.742;  107.734;  159.480
427.101;10798.767; -127.269; -323.515
427.390;13417.011;  -55.270;  -86.514
427.680; 2797.851; -624.257; -411.538
427.969;  472.737; -330.255; -301.540
428.258;  317.843; -385.257; -477.536
428.547;  517.365;  449.728;  397.490
428.836; 1171.754; -421.253; -398.543
429.125; 1653.233; -199.259;  -72.534
429.414;  784.802; -330.251; -294.548
429.703; 3273.577; -231.251; -213.548
429.992; 9869.830; -938.250; -828.549
430.281; 6411.535; -397.264; -331.524
430.570;  551.542;  -21.252;   32.454
430.859;  515.731;  279.741;  352.466
431.148;  402.704;  636.752;  631.446
431.437;  274.766;  391.748;  367.454
431.725;  151.394; -544.257; -481.536
432.014;  143.361; -845.253; -756.545
432.303;  357.581; -149.239; -105.569
432.592;  579.116; -460.263; -178.525
432.881; 1070.481; -601.248; -437.554
433.169; 6534.688; -343.255;  -61.540
433.458;13324.815;  445.765;  540.424
433.747; 5448.059; -397.261; -289.529
434.036;  830.632; -275.242; -280.564
434.324; 2153.143; -395.249; -379.551
434.613; 3820.475;   40.757;  159.437
434.902; 1204.521;  333.760;  439.433
435.190;  474.730;   75.761;  295.431
435.479;  251.332;  -52.245;   83.441
435.767;   97.090; -411.244; -427.561
436.056;  186.652; -340.242; -294.563
436.345;  348.648; -372.240; -223.568
436.633;  382.588;   60.750;  383.450
436.922;  232.301;  208.760;  414.432
437.210;  465.680; -194.236;    1.426
437.499; 1539.288; -583.235; -432.576
437.787; 1652.280; -339.236;  -10.574
438.075;  429.585;   56.761;  162.430
438.364;  606.488;  -44.238;  250.429
438.652;  360.244; -286.226; -138.592
438.941;  131.633;    3.770;  269.415
439.229;   -8.561; -665.252; -466.545
439.517;   27.972; -160.234;  -85.577
439.806;  -17.440; -501.225; -290.595
440.094;  160.529;  377.766;  650.421
440.382;  144.908; -653.233; -302.580
440.670;  151.013; -361.235; -285.576
440.959;   18.177; -347.223; -170.599
441.247;   55.194; -151.229; -109.587
441.535;   77.320; -266.235;   31.423
441.823;   31.852; -497.234; -305.578
442.111;  172.973;  173.771;  327.412
442.400;  459.881; -628.245; -335.559
442.688; 1123.154; -111.234; -620.579
442.976;  794.516; -786.213; -450.617
443.264;   78.892; -324.224; -364.597
443.552;   75.845; -258.226;   51.408
443.840;  152.844;  602.765;  876.423
444.128;  123.232;  265.767;  269.420
444.416;    0.801; -694.228; -312.588
444.704;   29.332; -465.219;  -92.605
444.992;   61.723;   -0.226;  240.407
445.280;   37.333; -517.230;  -94.585
445.568;   28.945; -694.212; -396.618
445.856;  298.991; -174.221;  357.398
446.143;  643.729;  -54.220;   -7.604
446.431;  520.855;  -25.228;  625.411
446.719;  224.552;  489.783;  675.391
447.007;  183.953;  481.769;  705.416
447.295;  172.074;  597.777;  871.402
447.583;   69.517; -464.229;  -34.587
447.870;  122.038; -434.221; -202.601
448.158;  370.982; -104.230;  129.415
448.446;  256.130; -800.219; -338.604
448.733;  156.518;   13.776;  269.403
449.021;  219.169;   60.788;  341.382
449.309;  180.884; -296.210;  208.379
449.596;  207.248;  128.783;   59.392
449.884;  153.356; -571.222; -325.600
450.172;  160.310; -756.227; -406.590
450.459;  455.774;  645.786;  780.387
450.747; 2557.797; -411.218; -147.608
451.034; 8184.081;  493.772;  889.411
451.322; 6710.527; -413.214; -170.614
451.609;  567.919;  292.777;  508.403
451.897;  615.098; -550.203; -183.634
452.184; 1934.750; -622.223; -400.598
452.472; 1774.006;   97.792;  269.375
452.759;  338.205;  512.781;  864.395
453.047;   89.992; -407.212; -125.617
453.334;   59.688; -732.219; -216.606
453.621;   86.030; -438.214; -161.615
453.909;  101.915;   13.796;  384.368
454.196;  102.286; -299.199; -123.641
454.483;  206.836;  317.798;  540.364
454.771;  128.834; -215.208;  196.374
455.058;   36.912; -316.207;  102.374
455.345;  113.567;   71.807;  344.347
455.632;   85.741; -128.207;  235.373
455.919;   41.184;  -82.196;  182.354
456.207;  -58.885; -774.198; -450.642
456.494;   -6.002; -475.200;  -66.639
456.781;    7.757; -399.202; -198.635
457.068;   50.522; -253.206;  -29.628
457.355;   -1.652; -698.206; -401.629
457.642;  -14.721; -552.205; -290.630
457.929;    7.408; -778.194; -417.651
458.216;   67.517; -575.212; -354.617
458.503;  271.537; -173.193;  -19.652
458.790;  244.157; -864.208; -630.625
459.077;  271.212;  -77.202;  110.364
459.364;  858.225; -350.195; -210.649
459.651; 1804.445;  -46.206;  220.372
459.938;  836.172; -864.209; -665.623
460.225;  118.815;  132.799;  276.363
460.512;  -50.469; -836.197; -688.645
460.799;  109.870;  -32.218;  320.392
461.086;   63.428; -370.200; -251.640
461.372;   27.441; -509.198; -279.642
461.659;   91.010; -165.196;  108.354
461.946;   56.186; -445.193;  -54.651
462.233;  224.251;  842.800;  888.361
462.519;  339.722; -814.201; -464.639
462.806; 1066.806; -768.197; -497.645
463.093;  902.232; -445.191;  -66.656
463.380;  -34.027; -920.186; -824.664
463.666;   53.908; -259.197;  -18.646
463.953;   84.770; -406.195; -243.648
464.239;  201.645; -173.195;  -77.648
464.526;  388.706;  413.806;  743.350
464.813;  315.768; -565.190; -304.658
465.099;  338.612;  606.807;  607.348
465.386;  305.341;  903.807;  921.348
465.672;    0.356; -694.197; -522.645
465.959;    9.812; -598.188; -520.662
466.245;   11.916; -468.193; -359.652
466.532;   75.118; -109.195;   63.352
466.818;   57.348; -357.186; -216.664
467.104;   -7.186; -488.182; -415.672
467.391;  -22.030; -628.189; -459.658
467.677;   27.677; -289.186;    9.335
467.964;    1.527; -682.189; -471.660
468.250;   47.755; -331.186; -160.665
468.536;   72.097;   90.811;  180.341
468.822;  -30.233; -821.184; -574.668
469.109;  130.270;  351.827;  471.311
469.395;  188.951;  729.808;  787.346
469.681;  202.700;   46.811;  156.341
469.967; 1293.479; -699.188; -382.660
470.254; 2859.212; -494.188; -306.662
470.540; 1795.058; -601.196; -476.646
470.826;  257.575; -488.181; -397.675
471.112;  316.670;  288.816;  113.331
471.398;   81.775; -253.183;  -58.670
471.684;   31.504; -626.177; -447.680
471.970;  -20.046; -918.180; -981.675
472.256;   19.250; -521.192; -441.654
472.542;    9.656; -499.171; -434.691
472.828;    1.485; -743.182; -607.672
473.114;   27.200; -380.166; -283.700
473.400;    5.845; -504.175; -293.684
473.686;   25.282; -452.166; -400.701
473.972;   60.435; -230.174; -131.687
474.258;  -41.155; -925.173; -843.689
474.544;  213.570; -183.178;   -2.679
474.830;  330.147;  -65.175;   45.316
475.116;  535.120; -123.190; -196.658
475.401;  704.656; -558.180; -467.676
475.687;  218.080; -725.180; -718.676
475.973;   -0.482; -673.181; -770.673
476.259;  227.349;  736.825;  764.315
476.544;  393.462; -539.176; -437.682
476.830;  934.602; -398.172; -322.690
477.116;  784.660; -430.177; -336.682
477.401;  134.631;  346.820;  358.324
477.687;  -27.555; -289.175; -405.684
477.973;   34.396;   21.819;   28.326
478.258;   -5.948; -448.163; -348.706
478.544;   46.210;   21.815;   61.334
478.829;  -68.263; -818.171; -738.692
479.115;  -36.473; -749.172; -651.690
479.401;  -16.070; -444.174; -449.686
479.686;   40.129; -253.180;  -74.676
479.972;  -24.875; -886.178; -776.680
480.257;   36.777; -258.166;  -65.700
480.542;    0.666; -614.170; -469.693
480.828;  230.444; 1288.824; 1392.317
481.113;  -41.384; -464.176; -426.683
481.399;  -16.949; -236.161; -202.711
481.684;  -57.424; -620.166; -462.700
481.969;   14.665; -158.159;  -73.713
482.255;  -10.673; -439.169; -285.695
482.540;   -7.824; -569.178; -441.680
482.825;    6.293; -395.187; -404.663
483.110;  103.205;  -85.169; -105.696
483.396;  226.737; -840.157; -652.718
483.681;  530.560;  543.826;  730.313
483.966;  155.859; -696.160; -700.712
484.251;    0.084; -404.174; -310.687
484.536;  -14.238; -356.165; -378.703
484.822;   15.112; -205.173; -218.687
485.107;  -28.450; -599.152; -502.726
485.392;  117.643;  662.836;  541.296
485.677;   74.940;  354.832;  163.302
485.962;   89.134;  160.843;  270.283
486.247;   88.060;  -14.162;   -8.707
486.532;   31.903; -178.166; -325.701
486.817;  155.971;  381.839;  431.291
487.102;  110.183; -453.154; -514.722
487.387;  734.189; -637.156; -652.718
487.672; 1312.298; -154.164;  -38.705
487.957;  799.728; -394.160; -286.711
488.241;  225.317; -290.150; -314.729
488.526;  794.352; -280.152; -148.726
488.811; 1326.478; -881.177; -818.680
489.096;  982.711; -666.154; -702.723
489.381;  539.823;    3.847;  162.275
489.666;  423.701; -428.161; -510.710
489.950;  163.489;  558.846;  627.277
490.235;  -42.913; -480.151; -458.728
490.520;  -53.025; -756.161; -723.710
490.804;  -44.859; -827.156; -736.719
491.089;   -4.142; -469.149; -299.732
491.374;   32.722; -132.164;  -75.704
491.658;  -12.730; -817.147; -717.735
491.943;  155.831; -657.152; -609.727
492.227;  239.604; -178.155;  -38.721
492.512;   34.609; -294.157; -341.717
492.797;  -52.123; -713.149; -716.731
493.081;  -56.778; -588.147; -598.735
493.366;  -47.923; -751.161; -635.711
493.650;  207.701;  831.859;  917.254
493.935;   43.044; -648.147; -447.734
494.219;  -41.662; -778.142; -687.743
494.503;  -48.703; -585.150; -487.730
494.788;   35.550;   46.842;   74.285
495.072;   95.318;  184.850;  434.271
495.356;  178.311; -463.148; -343.733
495.641;  464.979; -812.146; -736.736
495.925;  442.296; -976.156; -903.719
496.209;   28.557; -599.149; -451.732
496.494;  -44.461; -763.142; -544.744
496.778;    0.258; -364.154; -360.722
497.062;  -58.005; -819.156; -627.719
497.346;  -23.170; -869.160; -640.711
497.631;  144.765;  580.852;  560.266
497.915;   80.465;  -64.145;  175.261
498.199;   32.362; -341.157; -277.718
498.483;   40.400; -562.152; -508.725
498.767;  191.345;  301.850;  300.271
499.051;  196.105; -126.149; -100.732
499.335;   24.228; -693.149; -739.731
499.619;  -38.947; -381.129; -423.767
499.903;   18.178; -272.155;  -65.721
500.187;   26.815; -588.153; -316.724
500.471;   25.355; -796.152; -595.727
500.755;  103.700;   62.839;  -96.710
501.039;    5.228; -270.155; -357.721
501.323;   93.103;  -21.141;  264.254
501.607;   37.253; -447.163; -503.706
501.891;   -9.962; -607.156; -512.718
502.174;  -26.799; -726.144; -585.741
502.458;   79.659;   89.849;  370.273
502.742;   36.802; -180.138; -191.751
503.026;  126.343; -412.147; -254.734
503.310;  186.989; -437.159; -375.713
503.593;  136.195; -464.147; -325.735
503.877;  102.618; -232.133; -156.760
504.161;  186.968;    2.847;  -50.724
504.444;  139.403; -841.158; -710.716
504.728;  505.621; -487.164; -522.704
505.012;  758.691; -257.150;  -76.729
505.295;  575.301; -417.161; -212.711
505.579;  564.270; -256.156; -496.719
505.862;  816.386; -555.145; -333.738
506.146;  815.766; -681.159; -758.714
506.429;  405.867;  568.841;  461.286
506.713;   62.714; -732.151; -667.728
506.996;  337.758;   90.846;  295.278
507.280;  367.416; -633.165; -474.703
507.563;  249.026; -469.155; -261.721
507.847;  113.566; -423.153; -112.724
508.130;   95.102; -665.161; -456.711
508.413;  121.247; -758.167; -577.700
508.697;  268.173; -151.167;   12.300
508.980;  172.943; -422.153; -312.724
509.263;    0.197; -466.155; -450.720
509.547;   17.466; -124.150;   82.271
509.830;   47.954; -172.160;  140.289
510.113;   89.520;  128.844;  298.281
510.396;   33.873; -530.152; -300.725
510.680;  120.262; -818.145; -812.738
510.963;  490.412;  184.846;  180.277
511.246;  418.624; -493.150; -357.730
511.529;  263.442; -482.145;  -83.739
511.812;  409.389; -250.134;   10.241
512.095;  308.161; -740.151; -396.728
512.378;   77.899; -317.147; -245.736
512.661;   33.560; -703.137; -623.753
512.944;   37.865; -750.142; -637.744
513.227;   59.232; -170.137; -171.752
513.510;   29.676; -479.144; -671.741
513.793;   30.707; -485.140; -435.747
514.076;  135.474;  -43.127;  -39.771
514.359;  110.683; -294.149; -135.732
514.642;   91.968; -442.142; -567.744
514.925;  802.231;  581.860;  561.253
515.208; 1100.735; -498.134; -443.758
515.491;  730.274; -276.133; -182.761
515.773;  399.580; -410.143; -337.742
516.056; 2284.016;  249.864;  409.246
516.339; 3023.520; -754.136; -652.755
516.622; 1893.047; -518.150; -488.730
516.904; 1096.112;  882.857;  975.257
517.187;  513.256; -730.138; -523.752
517.470;  397.261; -568.143; -510.743
517.752;  481.223; -624.136; -470.756
518.035;  378.468; -708.139; -725.749
518.318;  421.945; -799.136; -744.755
518.600; 2716.603; -300.132; -325.762
518.883; 3697.693;  310.858;   88.256
519.165; 1770.348; -585.138; -426.751
519.448;  395.628;  -61.132;  -19.762
519.730;  188.857; -573.126; -415.773
520.013;  287.145;  588.867;  664.240
520.295;  717.366;  -94.134;  -15.759
520.578; 1577.141; -335.131; -305.764
520.860; 1828.203; -254.132;   56.238
521.143;  978.325; -763.135; -584.756
521.425;  499.670; -251.125; -279.775
521.707;  719.600; -622.127; -380.771
521.990; 1933.400; -199.127;  167.229
522.272; 2192.509; -116.140;   -4.748
522.554;  949.055; -237.143; -157.742
522.836;  343.039;  -24.134;   99.241
523.119;  221.942; -496.148; -189.734
523.401;  154.548; -448.130; -314.766
523.683;   90.985; -865.137; -693.753
523.965;  301.928;  408.862;  260.248
524.247;  297.391;   54.878;  170.220
524.529;  214.341; -451.134; -367.759
524.812;  372.100;   -3.130;  191.234
525.094;  949.828; -773.138; -631.751
525.376; 1481.429; -143.124;   78.223
525.658;  894.167; -441.136; -339.754
525.940;   28.762; -805.131; -671.764
526.222;   19.446; -188.136;  -88.755
526.504;  115.185; -190.131;   32.237
526.786;  169.793; -960.133; -647.760
527.068;  279.160; -124.123;  -67.778
527.349;  102.064; -865.137; -774.754
527.631;  136.802; -137.132;   22.238
527.913;  164.324; -664.127; -450.771
528.195;  187.838; -761.125; -639.774
528.477;  278.886;  -93.134;  -30.758
528.759;  162.849; -648.130; -522.766
529.040;   79.158; -569.123; -293.778
529.322;   63.340; -235.125;  -10.774
529.604;  136.777;  -47.130;   93.233
529.886;  120.106; -546.126; -302.773
530.167;  119.493;  232.870;  192.235
530.449;   47.624;    1.853;   63.265
530.731;   28.740; -572.122; -459.779
531.012;   65.936; -513.120; -216.784
531.294;   79.901; -118.116;  -43.792
531.575;  168.245;  290.875;  538.225
531.857;   64.331; -548.135; -266.757
532.138;  107.026; -113.141;   40.254
532.420;  170.627;  294.865;  403.244
532.701;  190.896; -722.133; -751.760
532.983;  327.124;  232.867;  182.239
533.264;  106.729; -243.126;  175.228
533.546;  -32.179; -491.136; -508.755
533.827;   30.467;  173.867;   -1.759
534.109;   22.655; -352.135;  -80.757
534.390;   81.257; -725.132; -582.762
534.671;  258.851; -270.135;  -82.756
534.953;  143.011; -751.123; -611.779
535.234;   29.711; -426.117; -255.789
535.515;  -74.780; -891.119; -735.785
535.796;  -16.855; -431.128; -193.770
536.078; -101.271;-1050.124; -904.777
536.359;   -4.188;  -22.123;    3.221
536.640;  -18.561; -480.125; -197.774
536.921;  156.257;  225.871;  143.232
537.202;  392.125;  -87.138;  -16.751
537.483;  483.590;  251.869;  377.236
537.764;  184.168;   17.870;   98.235
538.045;  -29.465; -543.134; -371.758
538.326;  -43.241; -596.129; -447.768
538.607;   36.351; -686.127; -476.771
538.888;  190.927;   98.879;    5.218
539.169;  210.697; -704.122; -535.781
539.450;  343.481;  236.871;   16.233
539.731;  230.031; -361.121; -182.783
540.012;  142.936;  199.880;  412.216
540.293;   83.648;   82.876;  158.224
540.574;   -8.353; -895.113; -717.796
540.855;  455.530;  435.879;  377.218
541.136;  546.669;   47.878;  139.220
541.416;  290.025; -161.130; -220.766
541.697;  205.611; -274.131; -170.763
541.978; 1131.529; -270.135; -315.757
542.259; 1449.550; -211.127; -236.771
542.539;  670.345; -191.116; -186.790
542.820;  163.469;  461.875;  480.225
543.101;  136.089;  -52.145;  -77.738
543.381;   30.225; -638.127; -591.771
543.662;  274.573;  159.873; -254.771
543.942;  632.896; -751.127; -830.770
544.223; 1129.046;  193.878;  161.219
544.504;  748.503; -275.124; -182.777
544.784;  626.681; -592.126; -408.773
545.065; 1782.898;  104.884; -254.791
545.345; 2076.070;  227.881;   14.215
545.626; 1384.346;  -14.113; -108.796
545.906;  959.093;   77.869;   98.235
546.186;  395.261;   92.874;  -95.773
546.467;  210.281;   99.877;  -95.778
546.747;  344.919;  264.884;  327.210
547.027;  382.552;   91.876;  111.223
547.308;  362.120; -376.127; -530.770
547.588;  430.235;  299.871;  371.232
547.868;  182.319;  458.870;  588.235
548.149;  199.506;  609.885;  593.207
548.429;  155.123; -347.127; -299.771
548.709;  225.186; -645.120; -461.784
548.989;  534.355;   84.882;   88.213
549.269; 2312.926;   10.868;  139.239
549.550; 5310.835;  215.877;  117.222
549.830; 4745.189; -758.111; -556.799
550.110;  949.972; -468.110; -320.801
550.390;  905.091; -128.122;  -56.779
550.670; 1255.592; -868.114; -783.795
550.950;  890.654; -509.121; -471.782
551.230;  199.426;  549.879;  460.218
551.510;    0.353; -381.121; -326.782
551.790;   37.379; -173.109; -127.803
552.070;  263.581;  940.877; 1181.223
552.350;  456.549; -492.119; -377.786
552.630;  654.548;   -2.121;   77.219
552.909;  377.624;  181.884;   73.209
553.189;  248.508;  -49.132;   33.237
553.469;  210.324; -703.119; -514.786
553.749;  217.702; -469.127; -357.772
554.029;  171.040;   33.883;  -24.790
554.308;  164.960; -154.115;  -37.794
554.588;   86.144; -196.128; -204.770
554.868;   80.205; -366.121;  -47.782
555.147;  170.207; -114.115;  -46.793
555.427;  653.226; -260.116; -250.792
555.707; 4259.155; -284.115; -200.793
555.986; 5198.892; -719.111; -538.800
556.266; 2695.018;   23.884;   72.210
556.546;  140.078; -888.121; -675.782
556.825;  293.414; -657.114; -556.794
557.105; 1964.192; -125.128;   17.230
557.384; 2301.798;  122.884;  187.209
557.664;  884.800; -717.116; -508.792
557.943;  129.004; -557.121; -411.782
558.222;  221.133; -345.118; -344.788
558.502;  303.409; -116.115;  -76.793
558.781;  530.204;  194.885;  499.208
559.061;  444.182; -232.118; -227.788
559.340;  306.237;  302.883;  353.211
559.619;  772.668;   93.884;  148.210
559.899; 1130.889; -239.117; -266.789
560.178; 1041.533; -778.115; -593.793
560.457; 3415.966; -623.117; -562.790
560.736; 4816.419; -472.111; -482.800
561.015; 3167.664; -500.128; -502.769
561.295;  419.999;  180.893;  215.193
561.574;  352.356;  119.885;  116.207
561.853;  532.834;  274.891;  303.197
562.132;  539.686;  -45.114;  182.206
562.411;  455.824;  396.879;  553.219
562.690;  161.904; -592.115; -458.792
562.969;  146.503;  472.888;  630.203
563.248;  476.246; 2966.878; 2487.219
563.527;  295.643; -290.111; -408.800
563.806;  428.373; -650.127; -521.771
564.085;  457.665; -297.105; -206.810
564.364;  280.467; -594.117; -405.790
564.643;  546.574; -276.121; -223.781
564.922; 2090.428;  221.890;  397.198
565.201; 2094.281; -640.109; -700.803
565.479;  905.627; -297.115; -219.792
565.758;  367.692; -810.128; -712.770
566.037;  538.382; -155.109; -100.803
566.316;  235.948; -286.116;  -28.791
566.595;   56.130;  -17.115;  -12.793
566.873;   89.795; -166.111;  -79.801
567.152;  -53.948; -490.113; -590.797
567.431;    3.519; -113.116;    6.210
567.709;   15.575; -344.107; -212.807
567.988;  284.339; -810.114; -769.794
568.266;  572.480; -160.115;  -68.793
568.545;  426.687; -644.100; -514.819
568.824;  643.052;  160.885;  356.208
569.102;  621.839; -351.114; -235.794
569.381;  249.551; -492.116; -407.792
569.659;  -35.401; -553.113; -553.796
569.938;   39.620; -743.122; -465.780
570.216;  125.860; -225.109; -225.804
570.494;   -5.983; -632.114; -572.795
570.773;   39.878;  202.879;  114.218
571.051;    9.559; -373.123; -357.778
571.330;   71.346; -221.113; -174.796
571.608;   45.030; -181.098; -173.823
571.886;  -65.863; -671.111; -581.799
572.164;  -54.770; -739.121; -621.782
572.443;  -44.057; -562.105; -512.811
572.721;  -24.759; -399.117; -289.790
572.999;  -25.015; -280.117; -168.788
573.277;  101.537;  379.894;  620.191
573.555;  309.114;   94.894;   37.190
573.834; 1505.409;  -86.117; -114.788
574.112; 1733.552;  880.893;  811.193
574.390;  531.619; -143.111;  -96.801
574.668;   14.154;  -91.112;  -61.797
574.946;    6.789; -165.106; -187.810
575.224;    8.731;   71.891;  -16.803
575.502;  -15.329; -200.116; -204.791
575.780;  -81.370; -767.112; -829.798
576.058;  238.918; 1589.889; 1004.200
576.336;  -20.126; -210.110; -129.801
576.614;  -48.520; -511.112; -340.798
576.891;   62.685; -711.115; -823.794
577.169;  535.968; -158.108; -285.805
577.447;  618.476;  169.893;  202.193
577.725;  286.359;  629.888;  854.201
578.003;   20.582;  -71.112; -371.798
578.280;  118.627; -208.104; -242.812
578.558;   58.859; -450.115; -422.793
578.836;  144.842; -210.114; -145.795
579.114;   56.878; -630.112; -670.797
579.391;   71.361;   -6.117;  -18.789
579.669;  -78.240; -595.114; -704.794
579.947;  192.723; -326.107; -127.806
580.224;  370.473; -692.107; -524.806
580.502;  345.852;  127.893;   76.193
580.779;   27.617;  -42.117;   75.210
581.057;  -80.390; -584.109; -470.804
581.334; -112.957; -726.102; -695.815
581.612;   33.415;   54.895;  511.190
581.889;  -19.244;  -83.101; -129.818
582.167;  -25.080; -298.099; -190.821
582.444; -103.900; -845.102; -814.817
582.721;  105.001;  657.899;  715.183
582.999;   67.168; -326.100; -167.821
583.276;  593.088; -812.123; -713.779
583.553;  804.696; -364.102; -294.816
583.831;  271.424; -607.104; -631.812
584.108;   41.491;  349.892;  174.195
584.385;   30.067; -122.102;  -98.815
584.662;  -62.055; -651.111; -828.801
584.940;   29.344;  204.889;  204.199
585.217;  -30.827;  -73.113; -303.796
585.494;   44.103;   71.890;  118.198
585.771;  214.761; -250.109; -354.804
586.048;  549.998; -196.113;  -76.796
586.325;  340.198; -721.110; -773.801
586.602;   92.203;  230.896;  213.188
586.879;  -14.161; -499.100; -580.820
587.156;   51.716; -156.105; -331.810
587.433;  -25.552; -701.102; -667.817
587.710;   75.856;  152.888;  234.202
587.987;  303.346; -264.105; -236.811
588.264;  835.257;  315.888;  387.202
588.541; 1409.780;  -61.104;   26.187
588.818; 2859.888;   72.892;  171.196
589.095; 2452.676; -163.104; -174.812
589.371;  403.759; -459.109; -414.804
589.648;   27.402; -581.107; -437.807
589.925;   44.843; -517.114; -621.795
590.202;   19.080; -741.112; -607.798
590.478;   99.448; -166.105;  -73.811
590.755;  288.769; -241.108; -132.806
591.032; 2696.850; -741.110; -699.802
591.308; 3719.471; -732.094; -790.831
591.585; 1927.724; -573.110; -560.802
591.862;  155.550;-1056.102; -950.817
592.138;   81.617; -475.108; -474.805
592.415;  161.879; -486.104; -495.813
592.691; 1544.826;  460.896;  518.188
592.968; 1965.507; -208.098; -123.824
593.244;  950.094; -695.116; -595.790
593.521;   71.825; -105.102;  -42.817
593.797;   -8.508; -810.122; -720.780
594.074;  340.070; -611.096; -588.826
594.350;  698.906;  828.905;  729.172
594.626;  330.420; -303.111; -283.801
594.903;  120.626; -643.101; -645.817
595.179;  208.082;  243.896;  418.187
595.455;   17.778; -136.107; -150.807
595.731;   -8.166;  -19.103;  -38.814
596.008;  -45.035; -464.111; -434.800
596.284;   38.616; -187.100; -242.820
596.560;   75.202; -501.093; -493.833
596.836;  221.593; -173.105;  -70.810
597.112;  385.493; -582.108; -437.805
597.388;  312.518;  -49.097;  -48.826
597.665;  127.776;  437.887;  530.203
597.941;  -55.718; -572.089; -658.839
598.217;   22.153; -323.110; -293.802
598.493;  277.388;   61.891; -204.804
598.769;  550.211; -175.100;  -50.819
599.045;  335.296; -490.108; -562.806
599.321;   59.540; -193.100; -261.820
599.597;  145.712; -355.109; -476.804
599.872;  505.230;  409.896;  429.187
600.148;  385.544;  -61.097; -172.826
600.424;  311.876;   91.893;  202.193
600.700;  257.078; -170.107; -280.807
600.976;  142.288; -442.097; -464.825
601.252;  266.634; -226.109; -272.803
601.527;  251.406; -833.104; -840.813
601.803;  149.148; -453.105; -404.812
602.079;  196.511; -124.100; -118.819
602.354;  614.362; -620.092; -531.835
602.630;  889.023; -140.113; -482.796
602.906; 2470.781; -910.101; -863.818
603.181; 7312.349; -627.119; -534.786
603.457; 6148.692;   98.903; -278.826
603.733;  912.632; -605.120; -626.783
604.008; 1026.590; -245.106; -164.810
604.284; 3296.352; -636.101; -580.817
604.559; 2853.084;   -3.112;  -42.799
604.835;  525.893; -163.105; -225.810
605.110;  449.596; -732.099; -892.821
605.385;  766.905;  224.907;  267.167
605.661;  688.334; -625.095; -729.829
605.936; 1308.446; -664.108; -737.806
606.211; 1084.816;  -17.103; -170.815
606.487;  214.238; -329.114; -376.794
606.762;   21.324; -791.119; -745.786
607.037;    1.318; -501.105; -433.810
607.313;  -48.923; -589.096; -574.828
607.588;   -8.036; -375.106; -137.810
607.863;   41.130;  -28.101; -143.818
608.138;  190.977;  513.890;  516.198
608.413;   40.925; -576.099; -592.822
608.688;   56.242; -203.108; -267.805
608.964;  222.834; -509.106; -218.809
609.239;  279.540; -107.105; -212.810
609.514;  265.498;  281.895;  240.188
609.789;  694.953; -187.104; -716.812
610.064;  944.876; -435.096; -609.827
610.339;  951.934; -855.109; -799.804
610.614; 1322.691; -131.100; -315.820
610.889;  732.373;  215.895;  107.188
611.163;   41.399; -407.104; -591.812
611.438;  110.239;   81.886; -167.794
611.713;   16.102; -467.101; -499.817
611.988;   68.129; -144.101; -328.818
612.263;  -33.657; -771.102; -717.815
612.538;  236.373;  385.887;  251.204
612.812;  208.142; -832.100; -911.820
613.087;  158.755; -358.098; -338.823
613.362;  -55.822; -497.107; -557.807
613.637;   36.512;  261.897;  138.186
613.911;   -5.837; -256.092; -345.835
614.186;  142.126; -249.107; -292.807
614.460;  743.832; -842.081; -758.854
614.735;  849.855;  -55.087;  -17.843
615.010;  175.845;   43.912;  -82.841
615.284;  254.017;  360.892;  246.195
615.559;  400.761; -792.092; -955.835
615.833;  321.473;  -76.099;  -87.822
616.108;   -4.202; -225.090; -390.837
616.382;  154.807;  274.913;  402.156
616.656;  172.349; -241.090; -232.837
616.931;  547.548; -785.099; -700.822
617.205; 1157.057; -973.104; -979.813
617.480; 1070.718;  -91.125;    6.225
617.754;  188.340; -396.125; -128.774
618.028;   19.910; -369.129; -382.768
618.302;   60.290;   73.892;  -25.805
618.577;  -37.087; -371.103; -518.815
618.851;  -61.219; -399.109; -600.803
619.125;  -55.759; -335.134; -378.759
619.399;  -34.868; -244.104; -374.813
619.673;  -50.273; -330.115; -515.792
619.947;  -43.358; -333.114; -448.795
620.222;   -8.029; -198.110; -204.801
620.496;   -4.595;  -47.121;  -96.782
620.770;   24.071; -187.122;  -93.781
621.044;  215.866;  323.895;  346.190
621.318;  795.308; -653.120; -614.783
621.592;  719.780; -430.121; -409.783
621.866;  404.985; -476.112; -572.799
622.140;   29.696; -207.116; -356.791
622.413;   55.514;  138.889;  112.200
622.687;  -28.548; -746.101; -492.817
622.961;   28.765; -130.108; -143.805
623.235;  -53.585; -633.111; -661.800
623.509;  -99.352; -816.105; -848.811
623.783;   16.524;  -12.107;   48.193
624.056;  -16.491; -254.120; -280.783
624.330;   57.479;   63.888;   -3.797
624.604;   42.492; -271.116; -355.790
624.877;   57.426;  180.890;   26.198
625.151;   45.061; -249.114; -238.794
625.425;  -36.441; -150.103; -283.814
625.698;  -63.507; -367.119; -374.785
625.972;  -80.397; -799.110; -765.802
626.245;   71.169;  685.884;  484.210
626.519;  -60.087; -426.120; -340.784
626.792;  -34.947; -192.107; -380.807
627.066;  -91.136; -485.122; -662.779
627.339;  -85.026; -736.110; -663.802
627.613;   29.286;  351.880;  148.216
627.886;   60.055;  187.891; -612.803
628.160;  -14.568;  312.880; -161.783
628.433;  -87.855; -695.125; -703.775
628.706;  -82.087; -517.120; -615.784
628.979;   29.002;  296.876;  117.223
629.253;  -80.152; -785.119; -833.786
629.526;  402.005; -334.126; -253.772
629.799;  389.459; -641.123; -479.778
630.072;  195.337; -497.128; -516.769
630.346;  -68.681;-1115.116;-1080.790
630.619;  491.704; -467.107; -545.808
630.892;  674.741;  709.889;  593.200
631.165;  353.532;  790.896;  679.187
631.438;  -74.943;-1092.112;-1055.798
631.711;   44.862;  453.877;  257.221
631.984;  -57.486; -523.117; -624.789
632.257;  -71.864; -636.117; -681.789
632.530;  -61.482; -412.119; -433.785
632.803;   17.809; -109.115;    7.207
633.076;  -77.244; -360.123; -422.777
633.349;   11.641;  173.872;  121.231
633.622;  -37.658; -187.119; -240.785
633.895; -116.691; -903.120; -823.783
634.167;  -66.568; -496.126; -525.773
634.440;   -9.774;  -19.116; -137.792
634.713;  -17.953;  -22.119; -120.786
634.986;   93.306;  593.871;  453.233
635.258;  -77.168; -507.115; -597.793
635.531;   95.807;  742.882; -343.788
635.804;  -15.187; -303.117; -318.789
636.077;  -92.353; -830.116; -852.791
636.349;    8.356; -586.115; -474.793
636.622;  396.129; 1695.874; 1392.228
636.894;  282.038; -474.120; -909.784
637.167;  179.323; -836.127; -789.771
637.439;   30.969; -278.128; -213.770
637.712;  -50.144; -312.126; -293.772
637.984;  -86.728; -635.116; -707.791
638.257;  388.281;  515.877;  488.222
638.529;  603.921; -881.125; -924.776
638.802;  271.937; -508.128; -449.769
639.074; -114.454; -927.122; -952.781
639.346; -105.193; -942.135; -930.757
639.619;   -7.384;  -79.142; -319.744
639.891;   -2.311;  -83.122; -168.779
640.163;  -91.159; -689.122; -756.780
640.435;   26.368;  273.878;  103.220
640.708;    5.995;  -72.122; -132.780
640.980;  -19.978; -366.122; -362.781
641.252;  180.874;  -25.121;  -71.781
641.524; 1834.875;  580.879;  573.219
641.796; 1890.427;-1094.121; -907.782
642.068;  343.754; -191.121; -300.782
642.340;  -56.044; -486.121; -566.783
642.613;   41.633;  294.880;  323.217
642.885; -110.340; -787.120; -878.783
643.157;  -50.739; -810.120; -658.784
643.428;   75.888;  170.880;  218.216
643.700;  -78.385; -498.120; -425.784
643.972;  -36.408;  -16.119; -133.785
644.244;  -82.031; -474.119; -559.785
644.516;  -54.454; -250.119; -114.786
644.788;   67.022;  662.881;  548.214
645.060;  -32.251;  -12.119; -124.786
645.332;  -93.724; -525.118; -535.787
645.603;   16.653;  479.882;  342.213
645.875;  -69.795; -334.118; -369.787
646.147;  156.682; 1487.882; 1242.212
646.418;  -45.666; -931.117; -918.788
646.690;  164.660; -714.117; -715.789
646.962;   68.137; -413.117; -451.789
647.233;  -15.336;   15.883;   11.211
647.505;  -98.709; -595.117; -475.790
647.776;   17.318;  328.884;  229.210
648.048;    7.945; -248.116; -418.790
648.320;  -75.204; -752.116; -679.791
648.591; -144.377;-1055.116; -958.791
648.862;  -82.275; -505.116; -577.792
649.134;   13.977;  115.885;  198.208
649.405;  -39.671; -661.115; -618.792
649.677;  -34.919; -475.115; -598.793
649.948;   -0.892; -181.115; -296.793
650.219;   10.459;  -37.115; -147.793
650.491;  -79.439; -431.114; -520.794
650.762; -116.937; -705.114; -731.794
651.033;  -76.085; -437.114; -424.795
651.304;  -82.483; -743.114; -728.795
651.576;  -64.131; -680.114; -645.795
651.847;  -32.705; -250.113; -140.796
652.118;  -18.603;  -32.113; -189.796
652.389;  -93.776; -639.113; -722.796
652.660;  -28.949; -147.113;  -89.797
652.931; -131.547; -897.112; -871.797
653.202;  -88.670; -382.112; -541.798
653.473;  -61.919; -633.112; -533.798
653.744;  160.233; -595.112; -590.798
654.015;  155.285; -356.112; -303.799
654.286;  -80.588; -642.111; -663.799
654.557;  -46.986; -586.111; -521.799
654.828; -163.209;-1114.111;-1088.800
655.099;  -80.107; -404.111; -291.800
655.370;  -89.681; -427.111; -543.801
655.641; -125.579; -656.110; -714.801
655.911; -114.202; -618.110; -638.801
656.182;   20.600;  437.890;  387.198
656.453;   91.502;  830.890;  746.198
656.724;  -62.521; -466.110; -426.802
656.994;  -80.820; -553.109; -568.803
657.265; -109.868; -862.109; -873.803
657.536;  -83.016; -500.109; -377.804
657.806;  -98.889; -561.109; -593.804
658.077; -143.337; -866.109; -950.804
658.347;  -88.260; -523.108; -598.805
658.618; -116.109; -646.108; -694.805
658.888;  -35.757;  -41.108;  112.195
659.159;  -85.155; -432.108; -548.806
659.429;  -18.678; -292.108; -349.806
659.700;   19.074; -435.107; -390.807
659.970;    7.001; -370.107; -359.807
660.241;   12.028; -754.107; -921.807
660.511;  535.779; -147.107; -174.808
660.781;  109.556; -793.106; -748.808
661.052;  -46.317; -222.106; -381.808
661.322;  -14.640;   21.894;   -9.809
661.592;   17.587;  257.894;  148.191
661.862;  -64.586; -369.106; -382.810
662.133;  -88.460; -551.105; -502.810
662.403; -118.508; -770.105; -676.810
662.673;  -56.556; -256.105; -213.811
662.943;  -83.504; -612.105; -551.811
663.213;   -1.302;  -85.105;  -81.811
663.483;  -70.525; -593.104; -568.812
663.753;  -40.848; -194.104; -152.812
664.023;  -19.747;   68.896;  -32.813
664.293;  -67.270; -319.104; -126.813
664.563; -115.293; -694.104; -648.813
664.833; -114.091; -743.103; -608.814
665.103; -124.264; -730.103; -793.814
665.373; -104.337; -766.103; -806.814
665.643;  -79.886; -863.103; -918.815
665.913;   38.791; -534.103; -714.815
666.182;  152.843; -685.102; -719.816
666.452;  291.145;  -22.102;  -89.816
666.722;  -17.453; -724.102; -784.816
666.992; -115.301; -948.102; -921.817
667.261;  -88.975; -824.102; -808.817
667.531;  194.027;  134.899;   45.183
667.801;  525.179; -440.101; -412.818
668.070;  224.831;  714.899;  697.182
668.340; -100.842; -883.101; -840.819
668.609;   76.235;  588.900;  301.181
668.879;  -73.588; -490.100; -558.819
669.149;  -70.737; -539.100; -516.820
669.418;  -93.510; -698.100; -726.820
669.688;  -24.683; -482.100; -666.820
669.957;   91.119; -423.099; -546.821
670.226;  -14.029; -268.099; -331.821
670.496;  -94.927; -431.099; -635.822
670.765;  -68.676; -418.099; -501.822
671.034; -128.824; -872.099; -828.822
671.304;   -4.822;   55.902; -111.823
671.573; -146.070;-1085.098; -957.823
671.842;   94.182; -380.098; -294.823
672.112;   39.709; -692.098; -586.824
672.381;   12.161; -239.098; -214.824
672.650; -141.013;-1005.097;-1021.825
672.919;  -81.211; -631.097; -507.825
673.188; -103.584; -681.097; -878.825
673.457; -149.432;-1101.097;-1143.826
673.726;  -68.180; -579.096; -646.826
673.995;  -34.953; -533.096; -479.826
674.265;   -3.627; -263.096; -333.827
674.534;    9.750; -183.096; -235.827
674.802;   14.027; -618.096; -703.828
675.071; 1045.804; -886.095; -801.828
675.340; 4201.756; -464.095; -339.828
675.609; 1420.258;  103.905;   82.171
675.878;  100.109; -949.095; -893.829
676.147;   45.486;  -26.095;   -8.829
676.416;   81.213; -210.094; -294.830
676.685;  780.915; 1000.906; -622.830
676.953;  135.867; -603.094; -452.831
677.222;  -21.131; -193.094; -273.831
677.491;  -22.929;  -24.094; -127.831
677.759;    3.822;   11.907;  172.168
678.028;  -12.751; -279.093; -222.832
678.297;   -8.149;   71.907;  197.168
678.565; -132.372; -898.093; -944.833
678.834;  -54.795; -311.093; -268.833
679.102;  -70.218; -411.092; -391.834
679.371; -142.142; -898.092; -727.834
679.639; -136.690; -797.092; -786.834
679.908; -119.388; -794.092; -724.835
680.176; -151.911; -895.091; -941.835
680.445;  -60.684; -346.091; -352.835
680.713;  -23.482;  -58.091;  -23.836
680.982;  -93.431; -523.091; -525.836
681.250; -107.704; -578.091; -507.837
681.518;  -92.727; -534.090; -751.837
681.787;    1.600; -204.090; -167.837
682.055;  -50.523; -490.090; -422.838
682.323; -153.346; -993.090; -992.838
682.591;   36.206; -216.090; -538.838
682.859;   89.332;    9.911;  -35.839
683.128;   30.309;  232.911;  497.161
683.396; -165.789;-1102.089;-1122.840
683.664;  -36.687; -241.089;   21.160
683.932;   -2.560;  144.911;  -76.840
684.200;  -81.558; -576.088; -320.841
684.468;  -27.032;  -73.088; -124.841
684.736;  -28.780; -214.088; -175.841
685.004; -117.603;-1024.088; -982.842
685.272;  -24.701; -880.088; -774.842
685.540;  -65.274; -499.087; -557.843
685.808;  -85.947; -651.087; -682.843
686.076;  -95.345; -894.087; -969.843
686.343;  -56.869; -601.087; -815.844
686.611;   41.783; -195.087; -224.844
686.879;  485.360; -530.086; -553.844
687.147; 3501.312; -483.086; -480.845
687.414; 1028.839;  -12.086; -169.845
687.682;   14.516; -658.086; -757.846
687.950;  309.067;  259.915;  263.154
688.217;   10.919; -792.085; -760.846
688.485;   -5.754; -632.085; -636.847
688.753;  543.598;  -11.085; -102.847
689.020;  200.450; -820.085; -851.847
689.288;  -92.198; -853.084; -787.848
689.555;  -19.172; -195.084; -148.848
689.823;  -43.370; -241.084; -345.849
690.090;  -76.468; -546.084; -651.849
690.358; -143.641; -877.084; -897.849
690.625;   13.136;  120.917;   45.150
690.892;  -74.937; -403.083; -369.850
691.160;  -15.460;   72.917;  -35.850
691.427;    1.316;  141.917;  130.149
691.694; -122.282; -855.083; -929.851
691.962; -148.180;-1177.082;-1060.852
692.229;    0.372;  127.918;   56.148
692.496;   96.649;  130.918;  -49.852
692.763;    3.026; -164.082; -201.853
693.031;  -68.598; -739.082; -716.853
693.298;  -29.471; -509.081; -368.853
693.565;  304.481; -155.081; -163.854
693.832; 1394.683;   -5.081;   -9.854
694.099;  164.910; -643.081; -642.855
694.366;  -56.088; -882.081; -896.855
694.633;  -45.187; -920.080; -633.855
694.900;  736.365; 4367.920; -114.856
695.167;  463.142; -214.080; -380.856
695.434;  108.769; -646.080; -623.856
695.701;  198.021;  121.921;  -61.857
695.968;  485.423; -365.079; -361.857
696.234;  961.375; -415.079; -646.858
696.501;10149.251; -776.079; -614.858
696.768; 5336.728; -554.079; -617.858
697.035;  295.780; -632.078; -667.859
697.302;   34.782; -448.078; -552.859
697.568;    3.009; -458.078; -497.859
697.835;  -35.514; -683.078; -624.860
698.102;  -19.538; -498.078; -407.860
698.368;   62.289;  384.923;  396.139
698.635;  -47.284;  -47.077; -424.861
698.901;  -23.407; -240.077; -348.861
699.168;   80.445; -534.077; -456.862
699.435;   72.822;  -72.077;  -13.862
699.701;  -95.901; -868.076; -764.862
699.968;    1.700;  144.924; -441.863
700.234;  -94.348; -783.076; -822.863
700.500;  -52.096; -448.076; -539.864
700.767;   11.631;   -1.075;   26.136
701.033; -133.242;-1015.075; -963.864
701.299;  -49.415; -450.075; -483.865
701.566;  117.486;  950.925;  763.135
701.832;   24.663;  -31.075;  -76.865
702.098;  -96.160;-1054.074;-1034.866
702.365;  -69.633;-1098.074;-1030.866
702.631;  -25.956;-1038.074;-1063.867
702.897; 1367.796; -765.074; -676.867
703.163; 2381.772;  348.926;  254.133
703.429;  180.374; -256.073; -273.868
703.695;  -24.599; -796.073; -792.868
703.961;   24.928; -214.073; -210.868
704.227;  -59.620; -630.073; -725.869
704.493;  126.782;  613.927;  510.131
704.759;  -29.516; -565.072; -540.870
705.025;   39.860; -203.072; -194.870
705.291;  -13.888; -666.072; -562.870
705.557;  186.714;  719.928;   34.129
705.823;   31.116; -742.072; -694.871
706.089;  144.293; -307.071; -326.871
706.355;  331.070; -315.071; -244.872
706.620; 5187.696; -776.071; -729.872
706.886; 7691.873; -309.071; -362.873
707.152;  769.150; -818.070; -973.873
707.418;  -10.073;-1153.070;-1186.873
707.683;    9.429; -550.070; -530.874
707.949;  -40.519; -547.070; -578.874
708.215;    3.258; -129.070; -207.874
708.480;  -29.741; -520.069; -420.875
708.746;   92.386;   68.931;   28.125
709.011;  -70.562; -578.069; -612.876
709.277;  -69.385; -538.069; -543.876
709.542;  -45.208; -428.069; -387.876
709.808;  -19.456;  -59.068;   89.123
710.073;  -81.505; -577.068; -695.877
710.339;  -25.328; -242.068; -228.877
710.604;   74.299; -780.068; -845.878
710.869;  343.426; -277.068; -366.878
711.135;  -66.222; -715.067; -628.879
711.400;  -89.720; -507.067; -608.879
711.665;  -63.894; -404.067; -479.879
711.931;  -82.867; -661.067; -677.880
712.196; -115.190; -876.067; -954.880
712.461;  119.837; -402.066; -490.880
712.726;  160.739; -727.066; -771.881
712.991;  -84.109; -647.066; -664.881
713.256;  -42.057; -350.066; -332.882
713.521;  -44.981; -417.065; -381.882
713.787;  -60.354; -454.065; -472.882
714.052;  -33.052; -214.065; -400.883
714.317;  -95.300;-1045.065; -981.883
714.581;  960.777; -374.065; -268.883
714.846; 1377.954; -822.064; -888.884
715.111;  130.380;  261.936;  257.116
715.376;  -28.218;  -86.064; -223.885
715.641;  -21.216; -365.064; -367.885
715.906;  307.511;   15.936; -551.885
716.171;  144.363;  221.937;  209.114
716.436;   36.540;  -78.063; -104.886
716.700; -100.284; -818.063; -692.886
716.965; -129.257; -794.063; -807.887
717.230;  -76.580; -339.063; -392.887
717.494;  -23.078;  -40.062; -134.888
717.759;  -89.101; -784.062; -640.888
718.024;    3.676;  269.938;  250.112
718.288;   88.428;  685.938;  395.111
718.553; -162.296; -803.062; -977.889
718.817; -138.619; -883.061; -899.889
719.082;  -34.442; -115.061; -125.890
719.346; -134.365;-1000.061; -947.890
719.611;  -50.188; -300.061; -255.891
719.875;  -86.286; -568.060; -537.891
720.140;  -61.910; -453.060; -603.891
720.404;   45.492; -136.060; -249.892
720.668;  902.219; -475.060; -411.892
720.933;  362.746;  146.940;  137.108
721.197;  -81.877; -667.059; -600.893
721.461; -133.300; -851.059; -826.893
721.725;  -17.198;  -21.059; -250.894
721.990;  -47.997; -284.059; -204.894
722.254;  -31.870;  -26.059; -108.894
722.518;  -79.668; -286.058; -442.895
722.782; -104.491; -743.058; -594.895
723.046;  135.961;  614.942;  570.105
723.310;   17.438;  374.942;  210.104
723.574;  -93.261; -654.058; -614.896
723.838; -107.359; -576.057; -642.897
724.102;  -43.707; -226.057; -239.897
724.366; -146.705;-1032.057; -978.897
724.630;  -94.953; -749.057; -571.898
724.894;  -94.876; -722.057; -514.898
725.158;   -1.925;   38.944; -295.898
725.422;  -56.723; -394.056; -327.899
725.685;  -50.746; -441.056; -349.899
725.949;  -73.344; -566.056; -519.900
726.213;  -82.117; -732.056; -811.900
726.477;  187.510;-1020.055; -933.900
726.740;  156.412; -274.055; -104.901
727.004;  317.338; -384.055; -510.901
727.268; 3264.990; -442.055; -400.901
727.531;  958.817; -961.055; -775.902
727.795;  -34.106; -713.054; -673.902
728.059;  -58.704; -552.054; -557.903
728.322;  -77.002; -841.054; -669.903
728.586;   29.774; -692.054; -701.903
728.849;  -78.499; -695.053; -756.904
729.112; -112.672; -812.053; -912.904
729.376; -119.695; -959.053; -905.904
729.639;  -87.643; -536.053; -536.905
729.903; -104.916; -733.053; -699.905
730.166;  -51.365; -437.052; -399.906
730.429;  -27.213; -317.052; -468.906
730.693;  -66.186; -355.052; -894.906
730.956;  207.366;  810.948;  651.093
731.219;  736.818; -310.052; -103.907
731.482;  131.020;-1003.051; -894.907
731.745;  108.672; -794.051; -935.908
732.009;    8.648;  -30.051;   50.092
732.272; -111.850; -904.051; -771.909
732.535;  -27.298; -300.051; -310.909
732.798; -164.146;-1083.050;-1166.909
733.061;  -49.719; -430.050; -456.910
733.324;    2.158;   31.950; -180.910
733.587;   87.309;  290.950;  365.090
733.850;  -66.689; -973.049;-1050.911
734.113;   35.088;   33.951;   32.089
734.376;   13.140; -328.049; -447.912
734.639;  220.967; 1188.951; 1011.088
734.901;   70.694; -180.049; -402.912
735.164;  526.546; -883.048; -837.913
735.427; 1384.022; -166.048; -355.913
735.690;  135.774; -205.048; -234.913
735.952;  -41.449; -923.048; -925.914
736.215;  -23.797;-1113.048;-1009.914
736.478;   43.905; -771.047; -774.915
736.740;  221.857;   33.953;  129.085
737.003;  661.058; -658.047; -672.915
737.266; 4345.085;  -94.047;   46.084
737.528;  473.837; -682.047; -660.916
737.791;  313.514; -316.046; -327.916
738.053;  776.416;  465.954;  649.083
738.316;10400.568; -162.046; -136.917
738.578; 7852.694; -770.046; -736.918
738.841;  462.221; -382.046; -446.918
739.103;  175.248; -875.045; -777.918
739.365;  517.300;   79.955;  -69.919
739.628;    0.527; -884.045; -805.919
739.890;  -22.871; -758.045; -710.919
740.152;  -49.019; -692.044; -754.920
740.414;   -4.243; -408.044; -359.920
740.677;  -40.341; -785.044; -634.921
740.939;  -41.439; -587.044; -487.921
741.201;  302.013; -432.044; -572.921
741.463;   35.790; -689.043; -745.922
741.725;   13.217;  -21.043; -199.922
741.987;   59.543;  220.957;  116.078
742.249;    6.295; -751.043; -859.923
742.511;  214.022; -703.043; -794.923
742.773;   30.924; -546.042; -546.924
743.035;  131.451;  796.958;  533.076
743.297;  -40.147; -963.042;-1013.924
743.559;  768.980; -278.042; -262.925
743.821;   85.756; -735.042; -744.925
744.083;   15.158;  -44.041; -149.925
744.345;  -96.790; -869.041; -892.926
744.607;   30.487;   75.959;  122.074
744.868;  -59.336; -490.041; -554.927
745.130; -102.159; -994.041;-1008.927
745.392;   30.842;   -1.040;  -44.927
745.653;    0.419; -411.040; -378.928
745.915;  144.571;  896.960;  631.072
746.177;   70.923;   35.960;  -43.928
746.438;    4.725; -428.040; -543.929
746.700;  -36.223; -947.039; -988.929
746.961;    0.453; -659.039; -740.930
747.223;  127.980; -190.039;  -74.930
747.484;   88.007; -391.039; -471.930
747.746;  152.834;  -23.038; -106.931
748.007;  126.861; -647.038; -689.931
748.269;  301.163; -468.038; -440.931
748.530;  515.990; -852.038; -638.932
748.791;  267.866; -354.038; -420.932
749.053;  443.043;  286.963;  163.067
749.314;  467.770; -236.037; -169.933
749.575;  538.422; -945.037; -905.933
749.836;  879.824; -217.037;   86.066
750.098; 2376.201;  -60.037;  -21.934
750.359;37381.752;  414.964;  555.066
750.620;10244.479; -121.036; -220.935
750.881; 1068.756; -585.036; -513.935
751.142; 1387.333; -950.036; -938.936
751.403;16540.535; -789.036; -705.936
751.664; 7905.912;-1034.035; -999.936
751.925;  509.213; -175.035; -262.937
752.186;  291.340; -298.035; -278.937
752.447;  136.092; -590.035; -445.937
752.708;   55.119; -532.035; -648.938
752.969;    5.046; -566.034; -576.938
753.230;  -15.027; -777.034; -672.939
753.491;    5.025; -650.034; -631.939
753.751;   79.076;  109.966;   19.061
754.012;   96.753;  258.967;  181.060
754.273;   63.205; -174.033;  -71.940
754.534;   23.207; -487.033; -580.940
754.794;  -85.766; -926.033; -911.941
755.055;  160.486; 1051.967;  881.059
755.316;  -31.538; -700.032; -566.942
755.576;  -33.161; -606.032; -576.942
755.837;  -46.309; -527.032; -695.942
756.097;  -41.207; -530.032; -564.943
756.358;  -79.180; -725.032; -770.943
756.618;  -48.728; -705.031; -641.943
756.879;    8.049; -254.031; -349.944
757.139; -112.325;-1098.031;-1116.944
757.400;  -58.523; -538.031; -553.945
757.660;  -19.146; -365.031; -401.945
757.920;    6.781; -266.030; -228.945
758.181;   -5.992; -468.030; -351.946
758.441;  -88.165; -870.030; -809.946
758.701;  -25.514; -308.030; -215.946
758.961;  -14.087; -220.030; -278.947
759.222;  -41.660; -574.029; -502.947
759.482;  -79.733; -683.029; -723.948
759.742;  -79.381; -706.029; -547.948
760.002;   14.921;  -83.029; -143.948
760.262;   30.022;   50.972;  182.051
760.522;  -45.976; -498.028; -574.949
760.782;  -48.124; -738.028; -612.949
761.042;  -29.797; -618.028; -573.950
761.302;   55.705;   55.972;  -18.950
761.562;   45.157; -164.027; -154.951
761.822;  101.184; -710.027; -551.951
762.082;  -39.265;-1104.027;-1093.951
762.342;   66.887; -328.027; -403.952
762.601;   81.614; -567.027; -506.952
762.861;  375.016; -281.026; -207.952
763.121;  401.818; -406.026; -411.953
763.381; 7123.470; -499.026; -485.953
763.640; 8485.221; -139.026; -307.954
763.900;  379.148; -242.026; -203.954
764.160;   90.850; -458.025; -491.954
764.419;    1.377; -726.025; -782.955
764.679;  -57.871; -795.025; -726.955
764.939;  -10.669; -124.025; -210.955
765.198;  -80.793; -608.025; -563.956
765.458;  -74.716; -710.024; -612.956
765.717;  -82.839; -454.024; -590.957
765.976;  -61.612; -428.024; -411.957
766.236;  -71.410; -475.024; -610.957
766.495;   23.842;  260.977;   73.042
766.755;  -88.581;-1090.023; -987.958
767.014;   16.470; -594.023; -665.958
767.273;  -50.628; -373.023; -397.959
767.533;  -38.576; -228.023; -307.959
767.792;  -40.374; -151.022; -188.960
768.051;  -60.422; -228.022; -276.960
768.310;  -99.620; -546.022; -650.960
768.569;   -5.169; -161.022;    4.039
768.828;  -33.667; -285.022; -363.961
769.088; -102.640;-1050.021; -942.961
769.347;  -81.838; -755.021; -599.962
769.606;  -93.111; -876.021; -857.962
769.865; -121.509;-1016.021;-1033.963
770.124;   -7.132; -411.021; -336.963
770.383;  -44.806; -778.020; -910.963
770.641;    7.896; -398.020; -400.964
770.900;  -60.852; -953.020; -846.964
771.159;  -46.175; -851.020; -951.964
771.418;  -17.148; -917.020; -779.965
771.677;  125.154; -224.019; -293.965
771.936;  105.680; -794.019; -865.966
772.194; 1928.257; -465.019; -437.966
772.453;10924.259; -213.019; -391.966
772.712;  810.961;  416.982;  329.033
772.970;   98.463;   32.982;   63.033
773.229;   89.640;  -22.018;  102.033
773.488;  -95.309; -814.018; -770.968
773.746;   61.093;  296.982;  335.032
774.005;    6.545;  190.983;  -22.969
774.263;    5.497;  243.983;  177.031
774.522;  -43.401; -422.017; -548.969
774.780;  -79.224; -484.017; -417.970
775.039;  -90.272; -551.017; -531.970
775.297;  -16.746; -135.016; -351.970
775.555; -113.969; -489.016; -612.971
775.814; -102.092; -618.016; -570.971
776.072; -132.590; -749.016; -740.971
776.330;  -99.888; -630.016; -520.972
776.589; -128.561; -703.015; -721.972
776.847; -130.810; -645.015; -624.973
777.105; -160.233;-1016.015;-1032.973
777.363;  -83.681; -459.015; -454.973
777.621; -132.529; -660.015; -717.974
777.879;  -32.077;  -42.014;   32.026
778.138; -103.275; -554.014; -717.974
778.396; -103.048; -585.014; -526.975
778.654; -168.872;-1015.014; -970.975
778.912;  -68.545; -269.014; -371.976
779.170; -132.693; -880.013; -803.976
779.427; -145.941; -922.013; -897.976
779.685; -126.564; -880.013; -832.977
779.943;  -83.012; -654.013; -593.977
780.201; -157.311; -964.012; -883.978
780.459; -103.534; -651.012; -610.978
780.717;  -87.982; -440.012; -390.978
780.974;  -90.255; -449.012; -490.979
781.232;  -81.603; -358.012; -338.979
781.490;  -81.326; -551.011; -472.979
781.747;  -89.850; -555.011; -476.980
782.005;   19.827;  462.989;  254.020
782.263; -157.321; -542.011;-1004.981
782.520;  -84.919; -326.011; -501.981
782.778; -158.142;-1013.010;-1051.981
783.035; -172.965; -962.010; -938.982
783.293;  -64.713; -248.010; -206.982
783.550;  -46.187; -134.010; -198.982
783.808; -133.685; -764.010; -776.983
784.065; -153.008; -745.009; -874.983
784.322;  -65.581;   25.991;  -86.984
784.580; -139.204; -915.009; -771.984
784.837;  -97.777; -392.009; -466.984
785.094; -136.751; -783.009; -762.985
785.352;  -61.049; -304.008; -404.985
785.609;  -99.897; -934.008; -839.985
785.866;  -68.545; -345.008; -401.986
786.123;  -52.743; -639.008; -583.986
786.380;  -93.341; -665.008; -604.987
786.637;  -46.415; -225.007; -380.987
786.895;  -23.988; -456.007; -543.987
787.152;  -45.311; -135.007; -267.988
787.409;  -43.559; -123.007; -225.988
787.666;  -86.182; -299.006; -378.988
787.923; -100.155; -616.006; -695.989
788.179;  -99.978; -551.006; -584.989
788.436; -109.427; -585.006; -585.990
788.693;  -36.200;  -92.006;  -87.990
788.950;  136.952; -125.005; -112.990
789.207;  260.104; -381.005; -372.991
789.464;  -54.469; -161.005; -301.991
789.720;   -9.292;  150.995;  110.009
789.977; -168.941;-1003.005; -671.992
790.234;  -28.464;   44.996;  -66.992
790.490; -137.862; -884.004;-1031.993
790.747;  -16.910;  -85.004;   22.007
791.004;  -27.183; -426.004; -348.993
791.260;  -68.606; -430.004; -560.994
791.517;  -91.779; -843.003; -788.994
791.773;  -55.278; -379.003; -342.994
792.030; -120.076; -596.003; -660.995
792.286;  -96.149; -686.003; -636.995
792.543;  -26.822;  -74.002; -159.995
792.799;  -60.645; -584.002; -382.996
793.055; -156.768;-1179.002;-1210.996
793.312;  -94.167; -827.002; -816.997
793.568;  -54.065; -746.002; -599.997
793.824;    5.212; -226.001; -284.997
794.081;   28.689; -447.001; -508.998
794.337;   67.791; -664.001; -561.998
794.593; 1175.868; -319.001; -271.999
794.849; 6737.319; -746.001; -772.999
795.105;  359.371; -270.000; -261.999
795.361;   16.198; -490.000; -457.000
795.617;  -59.800; -875.000; -945.000
795.873;  -36.050; -360.000; -407.000
796.129;  -34.275; -368.000; -306.000
796.385;  -13.075; -124.000; -156.000
796.641;   64.575;  412.000;  550.000
796.897;  -65.600; -666.000; -635.000
797.153;   50.875;  453.000;  357.000
797.409;  -92.550; -785.000; -868.000
797.665;  -84.925; -625.000; -732.000
797.921;  -91.525; -775.000; -762.000
798.176;  -49.050; -744.000; -747.000
798.432;  -53.025; -824.000; -596.000
798.688;  -62.075;-1174.000;-1078.000
798.943;   75.150; -165.000; -147.000
799.199;   -1.225;-1005.000; -959.000
799.455;  228.825;  369.000;  316.000
799.710;  120.700; -813.000; -380.000
799.966;  294.750; -162.000; -160.000
800.221;  451.250; -638.000; -721.000
800.477; 9811.325; -743.000; -710.000
800.732; 9794.975; -773.000; -800.000
800.988;  642.625;  205.000;  -19.000
801.243; 1540.625; -454.000; -344.000
801.498; 7369.975; -814.000; -739.000
801.754;  439.825; -289.000; -163.000
802.009;   89.925; -257.000; -335.000
802.264;  -52.125; -967.000;-1033.000
802.520;   31.775;  222.000;   -3.000
802.775;  -55.900; -524.000; -359.000
803.030;   46.125;  395.000;  356.000
803.285; -112.275; -840.000; -903.000
803.540;  -67.600; -686.000; -699.000
803.795;  -38.150; -648.000; -583.000
804.051;  -41.800; -279.000; -346.000
804.306;    2.100;  168.000;  128.000
804.561;  142.350;  451.000;  362.000
804.816;  123.400;  714.000;  861.000
805.071;    9.950; -185.000; -280.000
805.325;  211.350; -257.000; -427.000
805.580;  -85.975; -841.000; -877.000
805.835;  -22.725; -204.000; -297.000
806.090;  -74.975; -760.000; -676.000
806.345;  -29.375; -344.000; -264.000
806.600;  -25.475; -549.000; -632.000
806.854;  -31.700; -408.000; -538.000
807.109;   -5.550; -493.000; -577.000
807.364;   -8.550; -407.000; -328.000
807.618;    9.450; -415.000; -381.000
807.873;   48.900; -470.000; -494.000
808.128;   98.000; -257.000; -518.000
808.382;  112.325; -224.000; -332.000
808.637;   75.500; -440.000; -511.000
808.891;  192.700; -257.000; -180.000
809.146;  108.000; -902.000; -794.000
809.400;  269.025; -848.000; -923.000
809.654;  339.925; -779.000; -551.000
809.909;  487.750; -841.000; -927.000
810.163; 6368.200; -813.000; -651.000
810.418;18417.450; -940.000; -861.000
810.672; 1123.700; -685.000; -690.000
810.926;  716.400; -993.000; -973.000
811.180; 1321.975; -439.000; -372.000
811.434;30067.575;  240.000;  135.000
811.689;13593.325; -231.000; -365.000
811.943;  654.200; -936.000; -953.000
812.197;  338.400; -893.000; -671.000
812.451;  117.325; -379.000; -514.000
812.705;  -16.175; -809.000; -619.000
812.959;   -6.025; -263.000; -388.000
813.213;   15.850; -283.000; -209.000
813.467;   65.350;  470.000;  253.000
813.721;  -96.300; -764.000; -792.000
813.975; -113.225; -826.000; -877.000
814.229;   34.500;  430.000;  353.000
814.482;  -62.100; -517.000; -566.000
814.736; -124.325; -766.000; -744.000
814.990; -125.325; -779.000; -872.000
815.244;  -31.875; -228.000; -285.000
815.497; -103.000; -636.000; -601.000
815.751;  -25.575; -141.000;   82.000
816.005;  -82.925; -470.000; -586.000
816.258;  -76.900; -510.000; -363.000
816.512; -111.800; -693.000; -610.000
816.766;   -6.825;  121.000;  157.000
817.019;   18.375;  148.000;  149.000
817.273; -114.025;-1000.000; -802.000
817.526;  -36.425; -206.000; -173.000
817.779;  -29.975;-1049.000; -960.000
818.033;  -53.950; -693.000; -807.000
818.286; -120.625; -725.000; -792.000
818.540;  -93.775; -403.000; -403.000
818.793;  -68.625; -402.000; -489.000
819.046; -104.625; -582.000; -520.000
819.299;  -37.325; -157.000; -166.000
819.553; -114.075; -552.000; -592.000
819.806; -166.150;-1016.000; -838.000
820.059;  -57.100; -334.000; -354.000
820.312;   19.700;  152.000;  185.000
820.565;  -17.825;  110.000;  -27.000
820.818;  -48.275;  -59.000; -173.000
821.071; -162.025;-1041.000; -957.000
821.324; -106.850; -536.000; -540.000
821.577; -111.000; -457.000; -483.000
821.830;  -63.250; -270.000; -172.000
822.083; -126.325; -733.000; -288.000
822.336;  -55.150; -261.000; -167.000
822.589; -122.575; -805.000; -688.000
822.842; -142.675; -875.000; -770.000
823.094; -175.250;-1076.000;-1114.000
823.347; -137.900; -925.000; -729.000
823.600;   17.025;  402.000;  187.000
823.853;  -46.500; -311.000; -267.000
824.105;  -75.650; -331.000; -575.000
824.358; -101.625; -617.000; -716.000
824.611;   21.400;  234.000;   40.000
824.863;  -47.750; -612.000; -591.000
825.116;   45.100;  -33.000;   27.000
825.368;   76.125; -366.000; -372.000
825.621;  158.025; -186.000; -240.000
825.873;   91.725; -704.000; -737.000
826.126;  529.925; -669.000; -641.000
826.378;11431.575; -389.000; -505.000
826.630; 3226.075; -890.000; -898.000
826.883;   58.225; -754.000; -693.000
827.135;   36.625; -279.000; -270.000
827.387; -101.525; -893.000; -839.000
827.639;  -44.275;  -86.000;   32.000
827.892; -111.750; -742.000; -582.000
828.144; -136.225; -848.000; -804.000
828.396;  -37.700;  104.000;  -80.000
828.648; -104.850; -440.000; -333.000
828.900; -147.075; -702.000; -795.000
829.152; -113.950; -684.000; -683.000
829.404;  -54.050; -215.000; -267.000
829.656;  -13.900;  321.000;  214.000
829.908;  -18.700;  393.000;  229.000
830.160; -167.650;-1064.000;-1047.000
830.412; -100.700; -481.000; -430.000
830.664; -121.475; -557.000; -665.000
830.916;  -75.275; -268.000; -206.000
831.167; -176.025;-1073.000; -951.000
831.419; -107.675; -623.000; -566.000
831.671; -148.150; -764.000; -809.000
831.923;  -84.650; -311.000; -447.000
832.174;  -78.800; -273.000; -331.000
832.426; -114.100; -493.000; -582.000
832.678; -189.750;-1043.000;-1091.000
832.929; -159.400; -947.000; -935.000
833.181;  -59.050; -575.000; -677.000
833.432;  -52.825;  -59.000; -186.000
833.684;  -27.900;  112.000;  -27.000
833.935; -119.675; -610.000; -566.000
834.187; -122.850; -829.000; -823.000
834.438;  -50.250;  -58.000;  -25.000
834.689;  -60.100; -255.000; -123.000
834.941;  -61.350; -343.000; -244.000
835.192;  -95.575; -590.000; -533.000
835.443;  -96.650; -419.000; -506.000
835.695;  -16.600;  138.000;  -16.000
835.946; -105.150; -608.000; -378.000
836.197; -109.775; -599.000; -622.000
836.448;  -86.775; -528.000; -395.000
836.699;  -62.125; -253.000; -341.000
836.950;   -3.500;   72.000;    7.000
837.201; -151.875;-1003.000; -987.000
837.452;  -51.325; -356.000; -170.000
837.703; -104.925; -791.000; -737.000
837.954;  -39.750; -205.000; -365.000
838.205;  -75.300;-1029.000;-1008.000
838.456;  175.150; -196.000; -282.000
838.707;   15.300; -423.000; -519.000
838.958;   18.275; -634.000; -647.000
839.209;  298.500;   18.000;   40.000
839.460;  123.925; -439.000; -201.000
839.710;  152.075; -135.000; -297.000
839.961;  423.400;  730.000;  612.000
840.212;  327.675; -382.000; -497.000
840.462; 1116.000; -328.000; -277.000
840.713;17379.975; -571.000; -536.000
840.964; 8022.600;  -62.000; -143.000
841.214;  542.450; -384.000; -624.000
841.465;  587.125; -214.000; -141.000
841.715;  541.975; -417.000; -380.000
841.966;  693.125; -746.000; -685.000
842.216; 8711.775; -330.000; -431.000
842.466;37239.225; -169.000; -313.000
842.717; 2343.850; -964.000; -952.000
842.967;  370.200; -635.000; -641.000
843.217;  286.025;   20.000;   28.000
843.468;   78.875; -104.000; -132.000
843.718;  -29.125; -718.000; -726.000
843.968;  -95.975; -837.000; -765.000
844.218;   20.200; -315.000; -262.000
844.469;  -40.725; -577.000; -561.000
844.719; -100.400; -537.000; -682.000
844.969;  -95.425; -550.000; -580.000
845.219; -151.850; -814.000; -862.000
845.469;  -71.650; -392.000; -342.000
845.719; -137.900; -792.000; -884.000
845.969;  -16.825;  119.000;  174.000
846.219; -126.075; -738.000; -720.000
846.469;   37.675;  464.000;  432.000
846.718;  -52.200; -115.000;   31.000
846.968; -133.400; -827.000; -827.000
847.218;  -59.025; -224.000; -371.000
847.468;  -97.325; -586.000; -555.000
847.718; -143.250; -827.000; -798.000
847.967; -136.750; -826.000; -915.000
848.217;  -97.875; -449.000; -569.000
848.467;  -64.825; -405.000; -376.000
848.716;  -96.800; -708.000; -725.000
848.966;   10.475; -372.000; -358.000
849.215;  -64.875; -428.000; -419.000
849.465;  -85.000; -785.000; -615.000
849.714; -152.975;-1132.000;-1150.000
849.964;  -54.150; -551.000; -613.000
850.213;  -33.225; -393.000; -355.000
850.463;   67.325;  137.000;  340.000
850.712;    4.325; -542.000; -567.000
850.961;   22.150; -739.000; -678.000
851.211;  102.875; -513.000; -504.000
851.460;  157.125; -635.000; -650.000
851.709;  538.575;  -25.000;   18.000
851.958; 9743.225; -912.000; -750.000
852.208;13569.525; -859.000; -879.000
852.457;  523.325; -181.000;  -13.000
852.706;   75.800; -791.000; -823.000
852.955;   26.925; -507.000; -528.000
853.204;  -60.700; -521.000; -461.000
853.453;  -90.075; -418.000; -458.000
853.702; -127.350; -660.000; -750.000
853.951; -107.475; -532.000; -520.000
854.200; -128.150; -613.000; -562.000
854.449; -122.700; -695.000; -661.000
854.698;  -94.350; -340.000; -279.000
854.946;  -69.600; -181.000; -284.000
855.195; -146.750; -843.000; -868.000
855.444; -103.175; -395.000; -420.000
855.693; -123.125; -345.000; -432.000
855.941;  -97.700; -387.000; -516.000
856.190;  -64.475; -256.000; -382.000
856.439; -118.075; -652.000; -703.000
856.687;  -65.800;  -99.000;  -72.000
856.936; -113.100; -621.000; -323.000
857.184; -187.225;-1067.000;-1020.000
857.433; -104.850; -423.000; -512.000
857.681; -176.500; -989.000; -953.000
857.930;  -74.050; -282.000; -433.000
858.178; -170.775; -856.000; -929.000
858.427; -152.200; -802.000; -781.000
858.675; -124.575; -377.000; -544.000
858.923; -106.675; -527.000; -819.000
859.172; -192.425;-1094.000;-1070.000
859.420;  -88.525; -339.000; -239.000
859.668; -144.575; -624.000; -628.000
859.916;  -10.300;  109.000;  115.000
860.164; -127.025; -699.000; -603.000
860.413;  270.250; -878.000; -696.000
860.661;  263.700; -709.000; -577.000
860.909;  -78.425; -339.000; -325.000
861.157;  -89.425; -277.000; -444.000
861.405; -129.000; -534.000; -670.000
861.653;    3.650;  310.000;  310.000
861.901;  180.100; -543.000; -613.000
862.149;   17.400; -801.000; -824.000
862.396;  -79.225; -297.000; -187.000
862.644; -101.250; -368.000; -347.000
862.892;  -47.800;   98.000;  138.000
863.140; -119.800; -549.000; -530.000
863.388; -151.475; -815.000; -759.000
863.635; -128.125; -642.000; -601.000
863.883;  -15.150;  231.000;  190.000
864.131;  -95.725; -288.000; -357.000
864.378; -130.200; -675.000; -540.000
864.626;  -94.625; -347.000; -415.000
864.873; -111.950; -556.000; -505.000
865.121; -155.900; -714.000; -799.000
865.368;  -56.625; -173.000;   75.000
865.616;  -39.650;  -33.000;  -40.000
865.863;  -75.725; -462.000; -506.000
866.111; -124.300; -795.000; -824.000
866.358;   23.850; -426.000; -420.000
866.605; 1967.175;  -64.000; -804.000
866.853; 2297.800; -621.000; -537.000
867.100;  -32.225; -728.000; -775.000
867.347; -105.225; -672.000; -611.000
867.594;  -95.750; -740.000; -714.000
867.841;   99.275;   97.000;   17.000
868.089; -154.600; -746.000; -698.000
868.336; -105.550; -477.000; -420.000
868.583; -141.375; -637.000; -741.000
868.830;  -56.325; -131.000; -170.000
869.077; -166.975; -859.000; -787.000
869.324; -124.700; -502.000; -458.000
869.571; -133.850; -398.000; -430.000
869.818; -120.625; -485.000; -439.000
870.065; -104.725; -439.000; -513.000
870.311; -124.575; -456.000; -542.000
870.558; -116.200; -332.000; -311.000
870.805;  -90.400; -320.000; -384.000
871.052; -116.850; -494.000; -369.000
871.298;  -54.775; -204.000; -131.000
871.545;  -66.375; -151.000; -185.000
871.792;  -86.250; -173.000; -222.000
872.038;  -83.700;   43.000; -126.000
872.285; -133.600; -496.000; -387.000
872.532; -106.275; -357.000; -387.000
872.778;    4.250;  556.000;  403.000
873.025;  -93.800; -384.000; -359.000
873.271;   31.000;  501.000;  578.000
873.517;  -28.275; -133.000; -209.000
873.764;  -30.700; -193.000;  -80.000
874.010;  -73.850; -143.000; -230.000
874.257;  -47.525;  123.000;   90.000
874.503; -137.775; -579.000; -479.000
874.749;  -68.625;   31.000;  275.000
874.995;  -66.725;  -80.000;  -20.000
875.242; -128.300; -540.000; -478.000
875.488; -104.225; -414.000; -439.000
875.734;  -67.425; -106.000; -234.000
875.980;  179.725; -872.000;-1032.000
876.226;  426.125; -157.000; -255.000
876.472;   -3.675;  343.000;  237.000
876.718;  -36.875;  184.000;  158.000
876.964;  -52.125;   56.000;   55.000
877.210; -140.000; -547.000; -677.000
877.456; -139.425; -630.000; -557.000
877.702; -172.925; -821.000; -832.000
877.948; -125.675; -377.000; -497.000
878.193;  -22.500;  361.000;  255.000
878.439;  -94.000; -487.000; -472.000
878.685; -105.775; -272.000; -343.000
878.931; -115.325; -618.000; -676.000
879.176;  -86.950; -201.000; -201.000
879.422; -181.600; -933.000; -820.000
879.668;   42.350;   10.000;   79.000
879.913;  159.525;   53.000;  137.000
880.159;  -66.125; -112.000;  -17.000
880.404;  -78.250; -152.000; -162.000
880.650;  -48.225;   91.000;  141.000
880.895; -157.650; -670.000; -710.000
881.141; -133.750; -454.000; -428.000
881.386; -150.075; -503.000; -658.000
881.631;  -90.500; -311.000; -166.000
881.877;  -43.300;  112.000;  -13.000
882.122; -138.150; -684.000; -600.000
882.367;  -91.350; -136.000; -186.000
882.612;  -83.125;  -80.000; -176.000
882.858; -165.600; -877.000; -823.000
883.103;  -96.650; -297.000; -267.000
883.348; -168.025; -759.000; -852.000
883.593; -132.975; -677.000; -602.000
883.838;  -54.975; -311.000;  -24.000
884.083;   31.050;  353.000;  288.000
884.328; -103.725; -564.000; -545.000
884.573;  -63.150; -196.000; -143.000
884.818;  181.675; -694.000; -531.000
885.063;  219.875; -348.000; -315.000
885.308; -104.275; -475.000; -398.000
885.553;  -21.525;  245.000;  325.000
885.797; -133.400; -545.000; -615.000
886.042;  -58.350;    8.000;   58.000
886.287;  -99.025; -253.000; -211.000
886.532;  -62.050;   26.000;  204.000
886.776; -110.200; -407.000; -525.000
887.021; -148.500; -621.000; -574.000
887.265; -157.950; -685.000; -689.000
887.510; -142.125; -557.000; -496.000
887.755;  -96.750; -194.000; -164.000
887.999; -128.925; -552.000; -575.000
888.244;  -57.000;  -58.000;  161.000
888.488;   -2.050;  371.000;  393.000
888.732; -140.650; -368.000; -520.000
888.977; -131.225; -622.000; -567.000
889.221; -162.625; -683.000; -659.000
889.465; -123.975; -422.000; -566.000
889.710;  -89.400;  -56.000; -299.000
889.954;   -1.625;  579.000;  467.000
890.198; -143.225; -584.000; -707.000
890.442; -144.550; -716.000; -712.000
890.687; -156.475; -800.000; -753.000
890.931;  -87.000; -273.000; -210.000
891.175; -153.875; -502.000; -500.000
891.419;  -71.375; -105.000; -110.000
891.663;  -85.450; -239.000; -112.000
891.907; -158.650; -801.000; -545.000
892.151; -175.550; -920.000; -815.000
892.395; -118.275; -274.000; -387.000
892.638;  -25.550;  408.000;  291.000
892.882; -171.025; -780.000; -867.000
893.126;    5.300;  758.000;  558.000
893.370; -108.675; -167.000; -168.000
893.614; -145.525; -714.000; -715.000
893.857;  -95.400; -183.000; -197.000
894.101; -150.525; -527.000; -631.000
894.345;  -64.825;  300.000;  150.000
894.588;   21.125;  569.000;  380.000
894.832;  -70.025; -178.000;  -84.000
895.075;  -91.525;   15.000;  -92.000
895.319; -127.900; -552.000; -420.000
895.563; -103.750; -413.000; -353.000
895.806; -148.650; -628.000; -741.000
896.049;  -73.200; -576.000; -368.000
896.293;   86.875;  527.000;  405.000
896.536;  -70.575; -465.000; -468.000
896.779;  -69.100; -149.000;   -1.000
897.023; -152.200; -751.000; -714.000
897.266;  -47.625;  325.000;  269.000
897.509; -182.175; -900.000; -901.000
897.752;  -39.325;  149.000;  171.000
897.996; -192.750; -972.000; -864.000
898.239;  -45.625;  168.000;  102.000
898.482; -124.975; -431.000; -453.000
898.725;  -23.275;  101.000;   53.000
898.968; -154.450; -609.000; -744.000
899.211; -116.150; -513.000; -361.000
899.454; -124.100; -633.000; -539.000
899.697;  -70.500;   90.000;  -43.000
899.940; -178.625; -761.000; -757.000
900.182;  -94.050; -335.000; -405.000
900.425;  -97.850; -150.000; -298.000
900.668;  -31.675;  491.000;  350.000
900.911; -115.275; -292.000; -345.000
901.154;  -64.725;  141.000;   -3.000
901.396; -139.200; -407.000; -412.000
901.639; -146.225; -430.000; -496.000
901.882; -185.175; -790.000; -809.000
902.124;  -81.250;  -29.000; -143.000
902.367; -125.075; -315.000; -361.000
902.609; -128.150; -476.000; -453.000
902.852;  -93.175; -108.000; -260.000
903.094; -123.775; -458.000; -337.000
903.337;  -78.225;  -26.000;   53.000
903.579; -112.700; -228.000; -441.000
903.821; -162.700; -597.000; -744.000
904.064;  -64.625;   85.000;  127.000
904.306;  -97.375; -126.000; -166.000
904.548; -111.525; -152.000; -366.000
904.790; -106.625; -195.000; -340.000
905.033; -128.950; -625.000; -577.000
905.275; -134.725; -513.000; -524.000
905.517;   37.200;  468.000;  256.000
905.759;  -67.600; -667.000; -761.000
906.001;  -95.300; -322.000; -369.000
906.243;  -61.425; -162.000; -224.000
906.485;  122.675; -265.000; -207.000
906.727;  145.425; -499.000; -542.000
906.969;  -36.700;  -30.000; -135.000
907.211;  122.350; -316.000; -382.000
907.453;  304.700; -188.000; -237.000
907.695;   13.450; -158.000; -385.000
907.936;   37.475;  818.000;  706.000
908.178;  -64.925;   92.000; -135.000
908.420;  -61.750; -111.000; -162.000
908.662; -135.675; -633.000; -682.000
908.903;  -82.575; -208.000; -123.000
909.145;  -65.675; -240.000; -305.000
909.386;    1.450;  315.000;  280.000
909.628;   27.225;  363.000;  397.000
909.870;    0.075;   29.000;  264.000
910.111; -101.650; -809.000; -949.000
910.353;   11.525; -123.000; -161.000
910.594;   11.100; -574.000; -606.000
910.835;   76.425; -265.000; -326.000
911.077;  149.700; -503.000; -604.000
911.318;  284.025; -505.000; -471.000
911.559;  435.375; -577.000; -880.000
911.801; 1281.475; -284.000; -280.000
912.042; 9744.475;  -50.000; -159.000
912.283;27251.475;  404.000;  371.000
912.524; 4679.225; -396.000; -457.000
912.765;  517.025; -193.000;   79.000
913.006;  231.700; -307.000; -338.000
913.247;   65.575; -270.000; -290.000
913.488;  -11.025;  -43.000;   30.000
913.729;  -77.350; -373.000; -373.000
913.970;  -73.250;  -96.000; -292.000
914.211;  -84.950; -160.000; -198.000
914.452;  -60.125; -118.000;  -11.000
914.693;   17.025;  510.000;  592.000
914.934;    5.950;  510.000;  440.000
915.175;  -64.700;   53.000;  -95.000
915.415;  -78.800; -137.000;   27.000
915.656;  -75.900;  -28.000;  192.000
915.897;  -82.725; -252.000;  -82.000
916.137;  -66.675;   74.000;   -9.000
916.378; -146.025; -573.000; -517.000
916.619;  -81.175; -159.000;  -63.000
916.859;  -46.650;  303.000;  330.000
917.100;  129.275; 1655.000; 1070.000
917.340;   39.300;  930.000;  728.000
917.581;   32.300;  965.000;  789.000
917.821;  -24.400; -171.000;  143.000
918.061;   12.900; -199.000;  -72.000
918.302;  -71.525; -152.000; -211.000
918.542;  -24.250;  -22.000;    3.000
918.782;   25.650;  369.000;  377.000
919.023;  138.150;  360.000;  427.000
919.263; 1311.725; 8131.000;  202.000
919.503; 1167.875; -137.000;  -54.000
919.743;  656.025;  390.000;  266.000
919.983;  296.725; -134.000;  -26.000
920.223;   90.700;  135.000;   14.000
920.463;  152.125;  631.000;  554.000
920.703;  124.425;   84.000;   39.000
920.943;  156.750; -110.000;   90.000
921.183;  227.525; -414.000; -405.000
921.423;  480.175;  307.000;  546.000
921.663;  706.475; -174.000; -257.000
921.903; 1499.450;  237.000;  173.000
922.143; 8197.425;  372.000;  389.000
922.383;32639.900;  158.000;  115.000
922.622;12335.775; -120.000;  -15.000
922.862; 1286.450;  796.000;  785.000
923.102;  471.425;  -51.000;   33.000
923.341;  192.200;   59.000;   74.000
923.581;   73.525;  450.000;  360.000
923.821;   19.200;  301.000;  398.000
924.060;    0.500;  351.000;  193.000
924.300;  -45.825;  -16.000; -128.000
924.539;  -10.375;  584.000;  473.000
924.779;   18.475;  812.000;  597.000
925.018;  -56.625;  247.000;  353.000
925.257;   -9.950;  595.000;  666.000
925.497;  -41.675;  447.000;  412.000
925.736;  -74.400;  -35.000;  102.000
925.975;   -8.900;  687.000;  669.000
926.214;   24.400;  907.000;  850.000
926.454;   16.000;  706.000;  757.000
926.693;  -44.500;  419.000;  543.000
926.932;   33.725; 1021.000;  825.000
927.171;   64.975; 1107.000; 1044.000
927.410;   49.750; 1144.000;  967.000
927.649;   13.225;  924.000;  742.000
927.888;  -17.675;  590.000;  564.000
928.127;  -24.075;  680.000;  678.000
928.366;   20.275;  842.000;  826.000
928.605;   29.775;  831.000;  737.000
928.844;  207.425; 1451.000; 1393.000
929.083;  624.875;  770.000;  613.000
929.321;  352.300; 1335.000; 1359.000
929.560;  102.700; 1158.000; 1122.000
929.799;  -40.475;  574.000;  475.000
930.038;   80.275; 1025.000; 1394.000
930.276;  -55.400;  334.000;  397.000
930.515;    5.725;  827.000;  681.000
930.753;  -37.950;  614.000;  589.000
930.992;  -20.825;  664.000;  717.000
931.230;    0.100;  847.000;  847.000
931.469;  152.775; 2162.000;  892.000
931.707;   60.550;  840.000;  751.000
931.946;   57.400; 1278.000; 1344.000
932.184;   53.525; 1437.000; 1175.000
932.423;   53.375; 1265.000;  963.000
932.661;   88.350; 1296.000; 1428.000
932.899;   21.850;  987.000;  821.000
933.137;    5.550;  754.000;  564.000
933.376;  157.675; 1664.000; 1335.000
933.614;  153.550; 1759.000; 1196.000
933.852;   52.450; 1357.000; 1171.000
934.090;  144.750; 1722.000; 1747.000
934.328;  109.050; 1252.000; 1457.000
934.566;   84.025; 1431.000; 1110.000
934.804;  129.725; 1263.000; 1309.000
935.042;  437.150; 1861.000; 1850.000
935.280; 1625.525; 2088.000; 2063.000
935.518; 1666.250; 2113.000; 2007.000
935.756;  370.700; 2481.000; 2316.000
935.994;  165.675; 1808.000; 1751.000
936.231;  356.675; 2890.000; 2950.000
936.469;  185.075; 2367.000; 2378.000
936.707;  168.725; 2220.000; 2167.000
936.945;  229.325; 2825.000; 2882.000
937.182;  220.150; 2679.000; 2741.000
937.420;  296.900; 3602.000; 3031.000
937.657;  414.775; 3365.000; 3478.000
937.895;  362.150; 3331.000; 3488.000
938.133;  302.325; 3540.000; 3528.000
938.370;  329.475; 3896.000; 4191.000
938.607;  382.425; 4488.000; 4205.000
938.845;  545.350; 5587.000; 5549.000
939.082;  488.750; 5387.000; 5177.000
939.320;  520.975; 5799.000; 5728.000
939.557;  638.250; 6549.000; 6491.000
939.794;  700.975; 7285.000; 7097.000
940.031;  896.775; 8421.000; 8368.000
940.269; 1102.800; 9552.000; 9107.000
940.506; 1112.650;10901.000;10507.000

