
Integration time [ms]: 100.000
Averaging Nr. [scans]: 40
Smoothing Nr. [pixels]: 0
Data measured with spectrometer [name]: 2101013U2
Wave   ;Sample   ;Dark     ;Reference
[nm]   ;[counts] ;[counts] ;[counts] 

394.013;   22.375; -450.257; -315.536
394.305;  201.873; -461.258; -419.536
394.596; 1133.145; -676.269; -527.514
394.887; 2814.962; -796.268; -654.518
395.178; 1064.967;  145.736;   11.476
395.470;   82.053; -210.263; -356.526
395.761;  184.976;  305.734;  394.479
396.052;  265.995; -545.284; -306.489
396.343;  258.615; -557.276; -454.503
396.634;   88.408; -200.279; -290.497
396.926;   76.734; -618.268; -565.517
397.217;   96.769;   11.725;  -17.504
397.508;   40.835; -366.273; -154.507
397.799;   26.258; -555.279; -571.497
398.090;   -2.597; -973.280; -902.495
398.381;  101.070;   11.708;  -11.473
398.672;  -14.229; -585.292; -742.473
398.963;   41.464; -348.279; -373.498
399.254;   90.955;   54.709; -209.475
399.545;  -45.727;-1017.266; -883.520
399.836;   51.779; -407.277; -343.501
400.127;   51.221; -205.295; -209.468
400.418;   41.554; -423.274; -392.506
400.709;   53.165; -359.281; -333.493
401.000;   41.559; -268.291; -309.476
401.290;  109.058;  225.698;  115.545
401.581;   50.103; -166.286; -228.485
401.872;   24.268; -542.298; -486.462
402.163;   47.864; -313.296; -252.467
402.454;   83.531; -123.291; -163.475
402.744;   42.430; -844.297; -813.465
403.035;  390.761; -226.293;  -86.471
403.326;  501.549; -366.292; -384.474
403.617;  344.663;  204.701;  165.539
403.907;  256.501; -593.283; -679.490
404.198; 2460.412; -545.307; -599.446
404.489; 6376.356; -618.283; -588.491
404.779; 2042.337; -618.302; -660.456
405.070;  219.915;  -67.304; -174.451
405.360;  337.563; -259.293; -238.472
405.651;  370.098;  125.699;   98.542
405.942;  163.198;  209.714;  127.516
406.232;  217.012; -432.285; -413.487
406.523;  397.706;  641.706;  758.530
406.813;   59.800; -579.286; -644.484
407.104;  291.694;  261.708;  144.527
407.394;  134.839; -604.299; -591.462
407.685;  149.937;  336.715;  222.513
407.975;   49.004; -400.283; -382.490
408.265;  106.670; -134.289; -190.478
408.556;   45.503; -472.291; -459.475
408.846;  152.782;  474.706;  429.530
409.137;   70.979;   -1.288; -216.480
409.427;   48.562; -193.285; -271.487
409.717;   39.188; -776.273; -692.508
410.007;  134.281;    4.715; -170.486
410.298;   68.274; -360.295; -342.469
410.588;   55.735; -495.285; -510.486
410.878;   21.590; -792.287; -873.482
411.168;  120.271; -481.298; -478.463
411.459;  118.299; -295.283; -242.489
411.749;   51.876; -609.292; -507.474
412.039;   39.677; -755.289; -386.480
412.329;  197.822;   40.722;  132.501
412.619;  178.226;  -62.286; -148.485
412.909;  353.048;  639.711;  594.521
413.199;  306.753; -130.280; -251.495
413.490;  384.939;  521.710;  352.523
413.780;  122.582;-1013.279; -913.496
414.070;  319.041;  -46.276;  235.497
414.360;  344.143; -729.278; -666.498
414.650;  420.511; -726.288; -688.482
414.940;  545.831; -538.280; -441.496
415.230;  927.633;   50.712;   74.519
415.520; 6157.194;  155.730;   66.486
415.809;24378.814; -305.281; -125.493
416.099;18809.606; -388.277; -229.501
416.389; 5412.602;  435.726;  236.494
416.679; 3154.757;   91.738;   85.473
416.969;  544.419; -527.287; -503.483
417.259;  458.084;  341.721;  171.503
417.549;  710.888;  522.718;  318.508
417.838; 1693.861; -205.268; -147.518
418.128; 5647.869;  650.710;  492.522
418.418; 4728.044; -491.272; -579.509
418.708; 3189.002;    9.726;  -48.506
418.997;12064.148; -474.275; -480.505
419.287;12483.559; -733.273; -790.507
419.577;11991.973; -160.283; -123.489
419.866;39572.254; -588.277; -498.501
420.156;40110.340; -242.270;  -55.513
420.446; 7116.474; -112.263;  -26.526
420.735;  813.234; -376.271; -446.512
421.025;  815.092; 1830.722;  315.502
421.314;  619.707; -203.271; -226.512
421.604; 1219.604;   89.732;  233.484
421.893;  710.003; -705.271; -602.511
422.183;  234.774; -487.263; -461.526
422.472;  373.205;  -36.271; -107.511
422.762;  432.804; -416.266; -379.521
423.051;  233.516; -916.276; -916.503
423.341;  295.686; -491.273; -439.507
423.630;  402.210; -121.265;   15.477
423.919;  371.722;   58.725;   49.495
424.209;  384.430;  -31.263;   56.473
424.498;  499.658;   68.732;  161.483
424.787; 1102.990; -535.267; -601.518
425.077; 3375.158;   34.735;   29.478
425.366; 4619.410; -734.262; -744.528
425.655;10204.812;  639.727;  259.493
425.945;23037.639; -313.247; -268.554
426.234;12627.283;  117.741;  300.467
426.523; 5151.888;  -86.259; -350.534
426.812; 7042.375;  107.734;  159.480
427.101;10591.375; -127.269; -323.515
427.390;13170.044;  -55.270;  -86.514
427.680; 2770.558; -624.257; -411.538
427.969;  461.244; -330.255; -301.540
428.258;  328.500; -385.257; -477.536
428.547;  507.149;  449.728;  397.490
428.836; 1128.410; -421.253; -398.543
429.125; 1612.565; -199.259;  -72.534
429.414;  763.457; -330.251; -294.548
429.703; 3202.882; -231.251; -213.548
429.992; 9609.811; -938.250; -828.549
430.281; 6283.067; -397.264; -331.524
430.570;  545.598;  -21.252;   32.454
430.859;  491.538;  279.741;  352.466
431.148;  413.535;  636.752;  631.446
431.437;  276.172;  391.748;  367.454
431.725;  163.051; -544.257; -481.536
432.014;  132.542; -845.253; -756.545
432.303;  364.285; -149.239; -105.569
432.592;  571.324; -460.263; -178.525
432.881; 1030.136; -601.248; -437.554
433.169; 6352.695; -343.255;  -61.540
433.458;13074.919;  445.765;  540.424
433.747; 5374.391; -397.261; -289.529
434.036;  812.086; -275.242; -280.564
434.324; 2100.898; -395.249; -379.551
434.613; 3742.580;   40.757;  159.437
434.902; 1203.251;  333.760;  439.433
435.190;  475.509;   75.761;  295.431
435.479;  267.212;  -52.245;   83.441
435.767;   80.495; -411.244; -427.561
436.056;  196.557; -340.242; -294.563
436.345;  354.878; -372.240; -223.568
436.633;  379.169;   60.750;  383.450
436.922;  223.180;  208.760;  414.432
437.210;  469.209; -194.236;    1.426
437.499; 1488.317; -583.235; -432.576
437.787; 1623.834; -339.236;  -10.574
438.075;  425.065;   56.761;  162.430
438.364;  606.242;  -44.238;  250.429
438.652;  344.122; -286.226; -138.592
438.941;  113.486;    3.770;  269.415
439.229;    3.195; -665.252; -466.545
439.517;   28.476; -160.234;  -85.577
439.806;  -11.462; -501.225; -290.595
440.094;  161.108;  377.766;  650.421
440.382;  149.137; -653.233; -302.580
440.670;  165.167; -361.235; -285.576
440.959;   15.830; -347.223; -170.599
441.247;   64.422; -151.229; -109.587
441.535;   76.224; -266.235;   31.423
441.823;   17.331; -497.234; -305.578
442.111;  170.977;  173.771;  327.412
442.400;  460.961; -628.245; -335.559
442.688; 1125.683; -111.234; -620.579
442.976;  785.692; -786.213; -450.617
443.264;   86.244; -324.224; -364.597
443.552;   89.148; -258.226;   51.408
443.840;  155.973;  602.765;  876.423
444.128;  104.261;  265.767;  269.420
444.416;   -0.421; -694.228; -312.588
444.704;   41.059; -465.219;  -92.605
444.992;   72.026;   -0.226;  240.407
445.280;   23.012; -517.230;  -94.585
445.568;   26.421; -694.212; -396.618
445.856;  282.319; -174.221;  357.398
446.143;  644.881;  -54.220;   -7.604
446.431;  530.683;  -25.228;  625.411
446.719;  212.054;  489.783;  675.391
447.007;  177.881;  481.769;  705.416
447.295;  163.327;  597.777;  871.402
447.583;   75.220; -464.229;  -34.587
447.870;  129.515; -434.221; -202.601
448.158;  372.560; -104.230;  129.415
448.446;  264.032; -800.219; -338.604
448.733;  154.396;   13.776;  269.403
449.021;  228.295;   60.788;  341.382
449.309;  177.960; -296.210;  208.379
449.596;  205.050;  128.783;   59.392
449.884;  163.084; -571.222; -325.600
450.172;  153.638; -756.227; -406.590
450.459;  460.701;  645.786;  780.387
450.747; 2494.798; -411.218; -147.608
451.034; 8050.484;  493.772;  889.411
451.322; 6617.529; -413.214; -170.614
451.609;  536.322;  292.777;  508.403
451.897;  613.823; -550.203; -183.634
452.184; 1863.377; -622.223; -400.598
452.472; 1745.807;   97.792;  269.375
452.759;  333.557;  512.781;  864.395
453.047;   91.043; -407.212; -125.617
453.334;   52.815; -732.219; -216.606
453.621;   50.631; -438.214; -161.615
453.909;  107.565;   13.796;  384.368
454.196;   80.110; -299.199; -123.641
454.483;  201.411;  317.798;  540.364
454.771;  121.160; -215.208;  196.374
455.058;   37.163; -316.207;  102.374
455.345;  105.590;   71.807;  344.347
455.632;   95.816; -128.207;  235.373
455.919;   38.583;  -82.196;  182.354
456.207;  -54.935; -774.198; -450.642
456.494;  -18.527; -475.200;  -66.639
456.781;    5.682; -399.202; -198.635
457.068;   43.223; -253.206;  -29.628
457.355;  -14.626; -698.206; -401.629
457.642;  -11.571; -552.205; -290.630
457.929;  -11.394; -778.194; -417.651
458.216;   62.618; -575.212; -354.617
458.503;  255.261; -173.193;  -19.652
458.790;  248.133; -864.208; -630.625
459.077;  261.287;  -77.202;  110.364
459.364;  808.824; -350.195; -210.649
459.651; 1727.121;  -46.206;  220.372
459.938;  796.648; -864.209; -665.623
460.225;  133.315;  132.799;  276.363
460.512;  -51.345; -836.197; -688.645
460.799;   85.547;  -32.218;  320.392
461.086;   53.178; -370.200; -251.640
461.372;   23.815; -509.198; -279.642
461.659;   84.334; -165.196;  108.354
461.946;   49.635; -445.193;  -54.651
462.233;  240.725;  842.800;  888.361
462.519;  349.847; -814.201; -464.639
462.806; 1046.081; -768.197; -497.645
463.093;  907.755; -445.191;  -66.656
463.380;  -26.404; -920.186; -824.664
463.666;   39.807; -259.197;  -18.646
463.953;  100.569; -406.195; -243.648
464.239;  201.844; -173.195;  -77.648
464.526;  374.255;  413.806;  743.350
464.813;  319.992; -565.190; -304.658
465.099;  335.861;  606.807;  607.348
465.386;  309.065;  903.807;  921.348
465.672;   18.906; -694.197; -522.645
465.959;   11.760; -598.188; -520.662
466.245;    4.140; -468.193; -359.652
466.532;   81.817; -109.195;   63.352
466.818;   51.671; -357.186; -216.664
467.104;   -8.639; -488.182; -415.672
467.391;  -24.756; -628.189; -459.658
467.677;   31.525; -289.186;    9.335
467.964;  -10.250; -682.189; -471.660
468.250;   42.102; -331.186; -160.665
468.536;   61.520;   90.811;  180.341
468.822;  -31.486; -821.184; -574.668
469.109;  129.717;  351.827;  471.311
469.395;  190.999;  729.808;  787.346
469.681;  182.223;   46.811;  156.341
469.967; 1286.203; -699.188; -382.660
470.254; 2793.061; -494.188; -306.662
470.540; 1762.683; -601.196; -476.646
470.826;  254.347; -488.181; -397.675
471.112;  313.293;  288.816;  113.331
471.398;   95.897; -253.183;  -58.670
471.684;   41.275; -626.177; -447.680
471.970;  -14.849; -918.180; -981.675
472.256;   22.398; -521.192; -441.654
472.542;    3.577; -499.171; -434.691
472.828;   12.882; -743.182; -607.672
473.114;   20.846; -380.166; -283.700
473.400;    3.367; -504.175; -293.684
473.686;   28.277; -452.166; -400.701
473.972;   62.406; -230.174; -131.687
474.258;  -42.558; -925.173; -843.689
474.544;  204.392; -183.178;   -2.679
474.830;  346.444;  -65.175;   45.316
475.116;  510.743; -123.190; -196.658
475.401;  718.878; -558.180; -467.676
475.687;  211.802; -725.180; -718.676
475.973;   -3.885; -673.181; -770.673
476.259;  223.921;  736.825;  764.315
476.544;  374.183; -539.176; -437.682
476.830;  893.699; -398.172; -322.690
477.116;  781.432; -430.177; -336.682
477.401;  138.903;  346.820;  358.324
477.687;  -29.383; -289.175; -405.684
477.973;   51.394;   21.819;   28.326
478.258;   -1.003; -448.163; -348.706
478.544;   38.733;   21.815;   61.334
478.829;  -55.442; -818.171; -738.692
479.115;  -53.477; -749.172; -651.690
479.401;  -16.548; -444.174; -449.686
479.686;   23.727; -253.180;  -74.676
479.972;  -33.253; -886.178; -776.680
480.257;   22.897; -258.166;  -65.700
480.542;  -14.538; -614.170; -469.693
480.828;  228.615; 1288.824; 1392.317
481.113;  -33.837; -464.176; -426.683
481.399;  -19.079; -236.161; -202.711
481.684;  -54.803; -620.166; -462.700
481.969;    2.985; -158.159;  -73.713
482.255;   -5.777; -439.169; -285.695
482.540;   -5.427; -569.178; -441.680
482.825;    2.616; -395.187; -404.663
483.110;   78.801;  -85.169; -105.696
483.396;  204.756; -840.157; -652.718
483.681;  525.857;  543.826;  730.313
483.966;  172.254; -696.160; -700.712
484.251;   -4.844; -404.174; -310.687
484.536;  -13.193; -356.165; -378.703
484.822;   11.709; -205.173; -218.687
485.107;  -26.856; -599.152; -502.726
485.392;  121.288;  662.836;  541.296
485.677;   62.661;  354.832;  163.302
485.962;  105.504;  160.843;  270.283
486.247;   87.655;  -14.162;   -8.707
486.532;   31.598; -178.166; -325.701
486.817;  152.291;  381.839;  431.291
487.102;  115.527; -453.154; -514.722
487.387;  718.633; -637.156; -652.718
487.672; 1260.718; -154.164;  -38.705
487.957;  793.198; -394.160; -286.711
488.241;  210.336; -290.150; -314.729
488.526;  773.245; -280.152; -148.726
488.811; 1299.949; -881.177; -818.680
489.096;  945.380; -666.154; -702.723
489.381;  511.117;    3.847;  162.275
489.666;  411.446; -428.161; -510.710
489.950;  178.108;  558.846;  627.277
490.235;  -44.044; -480.151; -458.728
490.520;  -51.280; -756.161; -723.710
490.804;  -64.890; -827.156; -736.719
491.089;   -5.949; -469.149; -299.732
491.374;   27.617; -132.164;  -75.704
491.658;  -14.087; -817.147; -717.735
491.943;  151.925; -657.152; -609.727
492.227;  220.573; -178.155;  -38.721
492.512;   37.578; -294.157; -341.717
492.797;  -69.655; -713.149; -716.731
493.081;  -60.759; -588.147; -598.735
493.366;  -43.279; -751.161; -635.711
493.650;  192.218;  831.859;  917.254
493.935;   31.087; -648.147; -447.734
494.219;  -44.769; -778.142; -687.743
494.503;  -56.185; -585.150; -487.730
494.788;   57.445;   46.842;   74.285
495.072;   98.262;  184.850;  434.271
495.356;  164.830; -463.148; -343.733
495.641;  459.472; -812.146; -736.736
495.925;  439.540; -976.156; -903.719
496.209;   31.251; -599.149; -451.732
496.494;  -54.819; -763.142; -544.744
496.778;   20.552; -364.154; -360.722
497.062;  -63.586; -819.156; -627.719
497.346;  -27.701; -869.160; -640.711
497.631;  137.433;  580.852;  560.266
497.915;   64.383;  -64.145;  175.261
498.199;   34.781; -341.157; -277.718
498.483;   36.519; -562.152; -508.725
498.767;  175.788;  301.850;  300.271
499.051;  177.624; -126.149; -100.732
499.335;   27.447; -693.149; -739.731
499.619;  -37.231; -381.129; -423.767
499.903;   19.147; -272.155;  -65.721
500.187;   28.634; -588.153; -316.724
500.471;   16.774; -796.152; -595.727
500.755;  103.595;   62.839;  -96.710
501.039;   12.097; -270.155; -357.721
501.323;   82.295;  -21.141;  264.254
501.607;   19.223; -447.163; -503.706
501.891;   -2.617; -607.156; -512.718
502.174;  -38.131; -726.144; -585.741
502.458;   57.078;   89.849;  370.273
502.742;   30.419; -180.138; -191.751
503.026;  114.587; -412.147; -254.734
503.310;  185.933; -437.159; -375.713
503.593;  120.913; -464.147; -325.735
503.877;  100.259; -232.133; -156.760
504.161;  177.412;    2.847;  -50.724
504.444;  118.872; -841.158; -710.716
504.728;  477.216; -487.164; -522.704
505.012;  750.785; -257.150;  -76.729
505.295;  562.246; -417.161; -212.711
505.579;  546.039; -256.156; -496.719
505.862;  810.154; -555.145; -333.738
506.146;  793.736; -681.159; -758.714
506.429;  418.511;  568.841;  461.286
506.713;   64.032; -732.151; -667.728
506.996;  342.527;   90.846;  295.278
507.280;  364.536; -633.165; -474.703
507.563;  251.295; -469.155; -261.721
507.847;  104.560; -423.153; -112.724
508.130;   95.572; -665.161; -456.711
508.413;  130.593; -758.167; -577.700
508.697;  259.218; -151.167;   12.300
508.980;  160.037; -422.153; -312.724
509.263;  -16.083; -466.155; -450.720
509.547;   51.560; -124.150;   82.271
509.830;   52.199; -172.160;  140.289
510.113;   77.139;  128.844;  298.281
510.396;   32.617; -530.152; -300.725
510.680;  114.080; -818.145; -812.738
510.963;  496.156;  184.846;  180.277
511.246;  420.642; -493.150; -357.730
511.529;  252.910; -482.145;  -83.739
511.812;  420.031; -250.134;   10.241
512.095;  286.229; -740.151; -396.728
512.378;   54.692; -317.147; -245.736
512.661;   44.227; -703.137; -623.753
512.944;   32.083; -750.142; -637.744
513.227;   59.624; -170.137; -171.752
513.510;    8.169; -479.144; -671.741
513.793;   38.849; -485.140; -435.747
514.076;  117.865;  -43.127;  -39.771
514.359;  107.677; -294.149; -135.732
514.642;   82.761; -442.142; -567.744
514.925;  789.373;  581.860;  561.253
515.208; 1081.227; -498.134; -443.758
515.491;  708.191; -276.133; -182.761
515.773;  407.447; -410.143; -337.742
516.056; 2252.758;  249.864;  409.246
516.339; 2945.537; -754.136; -652.755
516.622; 1847.990; -518.150; -488.730
516.904; 1079.954;  882.857;  975.257
517.187;  494.622; -730.138; -523.752
517.470;  387.553; -568.143; -510.743
517.752;  463.515; -624.136; -470.756
518.035;  352.585; -708.139; -725.749
518.318;  395.737; -799.136; -744.755
518.600; 2667.744; -300.132; -325.762
518.883; 3606.160;  310.858;   88.256
519.165; 1744.415; -585.138; -426.751
519.448;  377.069;  -61.132;  -19.762
519.730;  191.447; -573.126; -415.773
520.013;  291.512;  588.867;  664.240
520.295;  690.982;  -94.134;  -15.759
520.578; 1541.782; -335.131; -305.764
520.860; 1791.869; -254.132;   56.238
521.143;  960.967; -763.135; -584.756
521.425;  488.685; -251.125; -279.775
521.707;  714.665; -622.127; -380.771
521.990; 1875.341; -199.127;  167.229
522.272; 2132.701; -116.140;   -4.748
522.554;  930.023; -237.143; -157.742
522.836;  329.455;  -24.134;   99.241
523.119;  194.611; -496.148; -189.734
523.401;  155.839; -448.130; -314.766
523.683;   86.352; -865.137; -693.753
523.965;  301.870;  408.862;  260.248
524.247;  288.306;   54.878;  170.220
524.529;  205.682; -451.134; -367.759
524.812;  370.866;   -3.130;  191.234
525.094;  927.520; -773.138; -631.751
525.376; 1461.019; -143.124;   78.223
525.658;  882.159; -441.136; -339.754
525.940;   24.154; -805.131; -671.764
526.222;   30.588; -188.136;  -88.755
526.504;  109.477; -190.131;   32.237
526.786;  139.285; -960.133; -647.760
527.068;  266.725; -124.123;  -67.778
527.349;   97.731; -865.137; -774.754
527.631;  144.644; -137.132;   22.238
527.913;  137.414; -664.127; -450.771
528.195;  173.503; -761.125; -639.774
528.477;  250.952;  -93.134;  -30.758
528.759;  134.216; -648.130; -522.766
529.040;   82.323; -569.123; -293.778
529.322;   62.731; -235.125;  -10.774
529.604;  130.093;  -47.130;   93.233
529.886;  121.872; -546.126; -302.773
530.167;  107.210;  232.870;  192.235
530.449;   47.267;    1.853;   63.265
530.731;   30.205; -572.122; -459.779
531.012;   74.976; -513.120; -216.784
531.294;   88.915; -118.116;  -43.792
531.575;  159.210;  290.875;  538.225
531.857;   54.597; -548.135; -266.757
532.138;  105.394; -113.141;   40.254
532.420;  177.018;  294.865;  403.244
532.701;  187.062; -722.133; -751.760
532.983;  325.665;  232.867;  182.239
533.264;  112.120; -243.126;  175.228
533.546;  -30.663; -491.136; -508.755
533.827;   31.784;  173.867;   -1.759
534.109;   39.022; -352.135;  -80.757
534.390;   79.573; -725.132; -582.762
534.671;  251.868; -270.135;  -82.756
534.953;  142.201; -751.123; -611.779
535.234;   18.700; -426.117; -255.789
535.515;  -71.291; -891.119; -735.785
535.796;  -23.915; -431.128; -193.770
536.078; -120.306;-1050.124; -904.777
536.359;    5.377;  -22.123;    3.221
536.640;  -23.570; -480.125; -197.774
536.921;  158.848;  225.871;  143.232
537.202;  384.417;  -87.138;  -16.751
537.483;  485.656;  251.869;  377.236
537.764;  183.335;   17.870;   98.235
538.045;  -39.649; -543.134; -371.758
538.326;  -39.575; -596.129; -447.768
538.607;   25.616; -686.127; -476.771
538.888;  180.892;   98.879;    5.218
539.169;  187.112; -704.122; -535.781
539.450;  335.297;  236.871;   16.233
539.731;  215.771; -361.121; -182.783
540.012;  145.976;  199.880;  412.216
540.293;   90.364;   82.876;  158.224
540.574;    1.711; -895.113; -717.796
540.855;  451.170;  435.879;  377.218
541.136;  544.359;   47.878;  139.220
541.416;  274.641; -161.130; -220.766
541.697;  210.952; -274.131; -170.763
541.978; 1107.120; -270.135; -315.757
542.259; 1397.741; -211.127; -236.771
542.539;  693.009; -191.116; -186.790
542.820;  203.985;  461.875;  480.225
543.101;  126.907;  -52.145;  -77.738
543.381;   19.066; -638.127; -591.771
543.662;  288.988;  159.873; -254.771
543.942;  624.186; -751.127; -830.770
544.223; 1108.511;  193.878;  161.219
544.504;  740.269; -275.124; -182.777
544.784;  605.372; -592.126; -408.773
545.065; 1718.813;  104.884; -254.791
545.345; 2049.210;  227.881;   14.215
545.626; 1350.110;  -14.113; -108.796
545.906;  944.009;   77.869;   98.235
546.186;  384.752;   92.874;  -95.773
546.467;  204.671;   99.877;  -95.778
546.747;  344.709;  264.884;  327.210
547.027;  387.592;   91.876;  111.223
547.308;  354.161; -376.127; -530.770
547.588;  424.775;  299.871;  371.232
547.868;  205.435;  458.870;  588.235
548.149;  201.695;  609.885;  593.207
548.429;  127.214; -347.127; -299.771
548.709;  211.801; -645.120; -461.784
548.989;  515.494;   84.882;   88.213
549.269; 2253.892;   10.868;  139.239
549.550; 5140.725;  215.877;  117.222
549.830; 4613.628; -758.111; -556.799
550.110;  929.360; -468.110; -320.801
550.390;  886.256; -128.122;  -56.779
550.670; 1193.606; -868.114; -783.795
550.950;  850.094; -509.121; -471.782
551.230;  206.640;  549.879;  460.218
551.510;    3.918; -381.121; -326.782
551.790;   28.418; -173.109; -127.803
552.070;  275.321;  940.877; 1181.223
552.350;  435.763; -492.119; -377.786
552.630;  634.963;   -2.121;   77.219
552.909;  373.413;  181.884;   73.209
553.189;  254.049;  -49.132;   33.237
553.469;  198.888; -703.119; -514.786
553.749;  210.042; -469.127; -357.772
554.029;  168.079;   33.883;  -24.790
554.308;  170.399; -154.115;  -37.794
554.588;   76.409; -196.128; -204.770
554.868;   82.445; -366.121;  -47.782
555.147;  156.321; -114.115;  -46.793
555.427;  636.190; -260.116; -250.792
555.707; 4159.894; -284.115; -200.793
555.986; 5023.681; -719.111; -538.800
556.266; 2672.007;   23.884;   72.210
556.546;  144.643; -888.121; -675.782
556.825;  279.753; -657.114; -556.794
557.105; 1940.132; -125.128;   17.230
557.384; 2234.662;  122.884;  187.209
557.664;  863.090; -717.116; -508.792
557.943;  132.419; -557.121; -411.782
558.222;  190.847; -345.118; -344.788
558.502;  284.723; -116.115;  -76.793
558.781;  536.968;  194.885;  499.208
559.061;  443.797; -232.118; -227.788
559.340;  319.302;  302.883;  353.211
559.619;  761.532;   93.884;  148.210
559.899; 1114.479; -239.117; -266.789
560.178; 1003.547; -778.115; -593.793
560.457; 3374.180; -623.117; -562.790
560.736; 4683.657; -472.111; -482.800
561.015; 3138.505; -500.128; -502.769
561.295;  411.588;  180.893;  215.193
561.574;  363.195;  119.885;  116.207
561.853;  521.847;  274.891;  303.197
562.132;  536.600;  -45.114;  182.206
562.411;  466.864;  396.879;  553.219
562.690;  155.268; -592.115; -458.792
562.969;  137.717;  472.888;  630.203
563.248;  503.736; 2966.878; 2487.219
563.527;  298.606; -290.111; -408.800
563.806;  422.664; -650.127; -521.771
564.085;  437.303; -297.105; -206.810
564.364;  256.307; -594.117; -405.790
564.643;  535.064; -276.121; -223.781
564.922; 2045.566;  221.890;  397.198
565.201; 2077.195; -640.109; -700.803
565.479;  880.317; -297.115; -219.792
565.758;  350.158; -810.128; -712.770
566.037;  519.296; -155.109; -100.803
566.316;  243.562; -286.116;  -28.791
566.595;   64.569;  -17.115;  -12.793
566.873;   95.058; -166.111;  -79.801
567.152;  -54.934; -490.113; -590.797
567.431;    5.158; -113.116;    6.210
567.709;   18.813; -344.107; -212.807
567.988;  273.678; -810.114; -769.794
568.266;  580.144; -160.115;  -68.793
568.545;  418.099; -644.100; -514.819
568.824;  637.091;  160.885;  356.208
569.102;  603.853; -351.114; -235.794
569.381;  250.190; -492.116; -407.792
569.659;  -38.637; -553.113; -553.796
569.938;   46.635; -743.122; -465.780
570.216;  113.173; -225.109; -225.804
570.494;  -18.719; -632.114; -572.795
570.773;   27.043;  202.879;  114.218
571.051;   14.949; -373.123; -357.778
571.330;   73.235; -221.113; -174.796
571.608;   54.017; -181.098; -173.823
571.886;  -72.824; -671.111; -581.799
572.164;  -55.880; -739.121; -621.782
572.443;  -42.869; -562.105; -512.811
572.721;  -34.395; -399.117; -289.790
572.999;  -22.101; -280.117; -168.788
573.277;   94.875;  379.894;  620.191
573.555;  327.677;   94.894;   37.190
573.834; 1492.474;  -86.117; -114.788
574.112; 1690.740;  880.893;  811.193
574.390;  491.383; -143.111;  -96.801
574.668;    0.043;  -91.112;  -61.797
574.946;    5.077; -165.106; -187.810
575.224;    6.395;   71.891;  -16.803
575.502;  -21.415; -200.116; -204.791
575.780;  -86.981; -767.112; -829.798
576.058;  136.207; 1589.889; 1004.200
576.336;  -19.488; -210.110; -129.801
576.614;  -40.381; -511.112; -340.798
576.891;   69.799; -711.115; -823.794
577.169;  524.481; -158.108; -285.805
577.447;  604.215;  169.893;  202.193
577.725;  270.323;  629.888;  854.201
578.003;   19.846;  -71.112; -371.798
578.280;   86.965; -208.104; -242.812
578.558;   62.823; -450.115; -422.793
578.836;  129.656; -210.114; -145.795
579.114;   53.467; -630.112; -670.797
579.391;   60.400;   -6.117;  -18.789
579.669;  -81.725; -595.114; -704.794
579.947;  189.011; -326.107; -127.806
580.224;  352.936; -692.107; -524.806
580.502;  337.540;  127.893;   76.193
580.779;   23.606;  -42.117;   75.210
581.057;  -76.351; -584.109; -470.804
581.334;  -86.795; -726.102; -695.815
581.612;   41.978;   54.895;  511.190
581.889;  -21.532;  -83.101; -129.818
582.167;  -25.618; -298.099; -190.821
582.444; -107.162; -845.102; -814.817
582.721;  105.039;  657.899;  715.183
582.999;   62.355; -326.100; -167.821
583.276;  582.153; -812.123; -713.779
583.553;  783.958; -364.102; -294.816
583.831;  255.412; -607.104; -631.812
584.108;   65.304;  349.892;  174.195
584.385;   28.555; -122.102;  -98.815
584.662;  -66.841; -651.111; -828.801
584.940;   31.233;  204.889;  204.199
585.217;   -3.413;  -73.113; -303.796
585.494;   47.667;   71.890;  118.198
585.771;  207.075; -250.109; -354.804
586.048;  525.687; -196.113;  -76.796
586.325;  322.386; -721.110; -773.801
586.602;   98.316;  230.896;  213.188
586.879;   -7.449; -499.100; -580.820
587.156;   68.429; -156.105; -331.810
587.433;  -27.214; -701.102; -667.817
587.710;   72.219;  152.888;  234.202
587.987;  304.884; -264.105; -236.811
588.264;  801.896;  315.888;  387.202
588.541; 1393.968;  -61.104;   26.187
588.818; 2779.302;   72.892;  171.196
589.095; 2416.714; -163.104; -174.812
589.371;  398.323; -459.109; -414.804
589.648;   19.840; -581.107; -437.807
589.925;   41.282; -517.114; -621.795
590.202;   14.694; -741.112; -607.798
590.478;   99.061; -166.105;  -73.811
590.755;  278.508; -241.108; -132.806
591.032; 2640.814; -741.110; -699.802
591.308; 3655.157; -732.094; -790.831
591.585; 1883.113; -573.110; -560.802
591.862;  142.437;-1056.102; -950.817
592.138;   70.680; -475.108; -474.805
592.415;  156.167; -486.104; -495.813
592.691; 1522.464;  460.896;  518.188
592.968; 1943.444; -208.098; -123.824
593.244;  925.559; -695.116; -595.790
593.521;   81.113; -105.102;  -42.817
593.797;  -16.368; -810.122; -720.780
594.074;  345.157; -611.096; -588.826
594.350;  690.493;  828.905;  729.172
594.626;  307.259; -303.111; -283.801
594.903;  127.238; -643.101; -645.817
595.179;  215.295;  243.896;  418.187
595.455;   17.741; -136.107; -150.807
595.731;  -11.328;  -19.103;  -38.814
596.008;  -39.547; -464.111; -434.800
596.284;   40.979; -187.100; -242.820
596.560;   71.013; -501.093; -493.833
596.836;  222.756; -173.105;  -70.810
597.112;  379.381; -582.108; -437.805
597.388;  312.055;  -49.097;  -48.826
597.665;  120.865;  437.887;  530.203
597.941;  -59.532; -572.089; -658.839
598.217;   26.617; -323.110; -293.802
598.493;  279.851;   61.891; -204.804
598.769;  540.948; -175.100;  -50.819
599.045;  334.134; -490.108; -562.806
599.321;   60.503; -193.100; -261.820
599.597;  141.475; -355.109; -476.804
599.872;  504.868;  409.896;  429.187
600.148;  399.931;  -61.097; -172.826
600.424;  311.114;   91.893;  202.193
600.700;  262.241; -170.107; -280.807
600.976;  133.250; -442.097; -464.825
601.252;  268.772; -226.109; -272.803
601.527;  233.919; -833.104; -840.813
601.803;  149.486; -453.105; -404.812
602.079;  195.623; -124.100; -118.819
602.354;  601.523; -620.092; -531.835
602.630;  872.237; -140.113; -482.796
602.906; 2439.918; -910.101; -863.818
603.181; 7144.363; -627.119; -534.786
603.457; 6021.879;   98.903; -278.826
603.733;  866.247; -605.120; -626.783
604.008;  994.053; -245.106; -164.810
604.284; 3221.915; -636.101; -580.817
604.559; 2801.623;   -3.112;  -42.799
604.835;  517.031; -163.105; -225.810
605.110;  436.783; -732.099; -892.821
605.385;  740.341;  224.907;  267.167
605.661;  699.320; -625.095; -729.829
605.936; 1243.834; -664.108; -737.806
606.211; 1049.503;  -17.103; -170.815
606.487;  225.452; -329.114; -376.794
606.762;   26.814; -791.119; -745.786
607.037;  -25.769; -501.105; -433.810
607.313;  -36.411; -589.096; -574.828
607.588;    6.002; -375.106; -137.810
607.863;   34.768;  -28.101; -143.818
608.138;  183.140;  513.890;  516.198
608.413;   40.787; -576.099; -592.822
608.688;   45.556; -203.108; -267.805
608.964;  223.372; -509.106; -218.809
609.239;  257.028; -107.105; -212.810
609.514;  257.236;  281.895;  240.188
609.789;  698.965; -187.104; -716.812
610.064;  901.288; -435.096; -609.827
610.339;  958.548; -855.109; -799.804
610.614; 1250.428; -131.100; -315.820
610.889;  698.986;  215.895;  107.188
611.163;   45.437; -407.104; -591.812
611.438;   84.628;   81.886; -167.794
611.713;    9.315; -467.101; -499.817
611.988;   69.017; -144.101; -328.818
612.263;  -16.545; -771.102; -717.815
612.538;  234.487;  385.887;  251.204
612.812;  185.804; -832.100; -911.820
613.087;  155.067; -358.098; -338.823
613.362;  -45.809; -497.107; -557.807
613.637;   48.800;  261.897;  138.186
613.911;   -7.201; -256.092; -345.835
614.186;  132.765; -249.107; -292.807
614.460;  733.067; -842.081; -758.854
614.735;  846.016;  -55.087;  -17.843
615.010;  171.581;   43.912;  -82.841
615.284;  278.130;  360.892;  246.195
615.559;  401.148; -792.092; -955.835
615.833;  286.535;  -76.099;  -87.822
616.108;   22.634; -225.090; -390.837
616.382;  144.117;  274.913;  402.156
616.656;  163.285; -241.090; -232.837
616.931;  538.335; -785.099; -700.822
617.205; 1118.894; -973.104; -979.813
617.480; 1040.208;  -91.125;    6.225
617.754;  180.406; -396.125; -128.774
618.028;   21.401; -369.129; -382.768
618.302;   62.029;   73.892;  -25.805
618.577;  -36.049; -371.103; -518.815
618.851;  -58.581; -399.109; -600.803
619.125;  -46.868; -335.134; -378.759
619.399;  -26.605; -244.104; -374.813
619.673;  -49.159; -330.115; -515.792
619.947;  -47.219; -333.114; -448.795
620.222;  -12.715; -198.110; -204.801
620.496;  -11.330;  -47.121;  -96.782
620.770;   21.236; -187.122;  -93.781
621.044;  205.279;  323.895;  346.190
621.318;  759.973; -653.120; -614.783
621.592;  699.170; -430.121; -409.783
621.866;  413.149; -476.112; -572.799
622.140;   21.935; -207.116; -356.791
622.413;   52.428;  138.889;  112.200
622.687;  -27.510; -746.101; -492.817
622.961;   12.854; -130.108; -143.805
623.235;  -57.446; -633.111; -661.800
623.509;  -98.964; -816.105; -848.811
623.783;   14.762;  -12.107;   48.193
624.056;  -10.851; -254.120; -280.783
624.330;   49.143;   63.888;   -3.797
624.604;   59.607; -271.116; -355.790
624.877;   77.539;  180.890;   26.198
625.151;   55.950; -249.114; -238.794
625.425;  -47.453; -150.103; -283.814
625.698;  -56.042; -367.119; -374.785
625.972;  -84.683; -799.110; -765.802
626.245;   79.909;  685.884;  484.210
626.519;  -53.672; -426.120; -340.784
626.792;  -24.734; -192.107; -380.807
627.066;  -83.121; -485.122; -662.779
627.339; -101.387; -736.110; -663.802
627.613;   41.976;  351.880;  148.216
627.886;   64.644;  187.891; -612.803
628.160;  -15.128;  312.880; -161.783
628.433;  -80.089; -695.125; -703.775
628.706;  -81.347; -517.120; -615.784
628.979;   33.192;  296.876;  117.223
629.253;  -86.312; -785.119; -833.786
629.526;  393.595; -334.126; -253.772
629.799;  382.474; -641.123; -479.778
630.072;  189.028; -497.128; -516.769
630.346;  -55.691;-1115.116;-1080.790
630.619;  493.717; -467.107; -545.808
630.892;  663.580;  709.889;  593.200
631.165;  358.095;  790.896;  679.187
631.438;  -68.704;-1092.112;-1055.798
631.711;   40.602;  453.877;  257.221
631.984;  -49.146; -523.117; -624.789
632.257;  -54.125; -636.117; -681.789
632.530;  -46.717; -412.119; -433.785
632.803;   25.948; -109.115;    7.207
633.076;  -64.454; -360.123; -422.777
633.349;   15.407;  173.872;  121.231
633.622;  -34.668; -187.119; -240.785
633.895; -125.627; -903.120; -823.783
634.167;  -52.353; -496.126; -525.773
634.440;    4.690;  -19.116; -137.792
634.713;    1.162;  -22.119; -120.786
634.986;   83.047;  593.871;  453.233
635.258;  -73.278; -507.115; -597.793
635.531;  103.446;  742.882; -343.788
635.804;  -41.097; -303.117; -318.789
636.077;  -89.414; -830.116; -852.791
636.349;   10.470; -586.115; -474.793
636.622;  400.620; 1695.874; 1392.228
636.894;  264.253; -474.120; -909.784
637.167;  173.089; -836.127; -789.771
637.439;   26.610; -278.128; -213.770
637.712;  -47.104; -312.126; -293.772
637.984;  -80.538; -635.116; -707.791
638.257;  393.071;  515.877;  488.222
638.529;  595.662; -881.125; -924.776
638.802;  258.578; -508.128; -449.769
639.074; -118.389; -927.122; -952.781
639.346; -111.101; -942.135; -930.757
639.619;  -10.516;  -79.142; -319.744
639.891;   -3.396;  -83.122; -168.779
640.163;  -76.194; -689.122; -756.780
640.435;   37.983;  273.878;  103.220
640.708;   -4.790;  -72.122; -132.780
640.980;  -26.913; -366.122; -362.781
641.252;  185.614;  -25.121;  -71.781
641.524; 1841.590;  580.879;  573.219
641.796; 1849.342;-1094.121; -907.782
642.068;  318.894; -191.121; -300.782
642.340;  -53.854; -486.121; -566.783
642.613;   27.473;  294.880;  323.217
642.885; -102.551; -787.120; -878.783
643.157;  -48.249; -810.120; -658.784
643.428;   62.703;  170.880;  218.216
643.700;  -65.570; -498.120; -425.784
643.972;  -31.468;  -16.119; -133.785
644.244;  -87.891; -474.119; -559.785
644.516;  -55.240; -250.119; -114.786
644.788;   79.612;  662.881;  548.214
645.060;  -33.811;  -12.119; -124.786
645.332;  -98.484; -525.118; -535.787
645.603;   28.543;  479.882;  342.213
645.875;  -75.806; -334.118; -369.787
646.147;  150.971; 1487.882; 1242.212
646.418;  -54.927; -931.117; -918.788
646.690;  178.725; -714.117; -715.789
646.962;   51.077; -413.117; -451.789
647.233;   -8.546;   15.883;   11.211
647.505;  -91.520; -595.117; -475.790
647.776;   21.582;  328.884;  229.210
648.048;   -6.616; -248.116; -418.790
648.320;  -81.814; -752.116; -679.791
648.591; -145.262;-1055.116; -958.791
648.862;  -82.111; -505.116; -577.792
649.134;   15.666;  115.885;  198.208
649.405;  -41.582; -661.115; -618.792
649.677;  -57.205; -475.115; -598.793
649.948;   -0.928; -181.115; -296.793
650.219;    7.374;  -37.115; -147.793
650.491;  -80.575; -431.114; -520.794
650.762; -114.548; -705.114; -731.794
651.033;  -99.171; -437.114; -424.795
651.304; -100.469; -743.114; -728.795
651.576;  -62.467; -680.114; -645.795
651.847;  -37.466; -250.113; -140.796
652.118;  -26.839;  -32.113; -189.796
652.389;  -98.987; -639.113; -722.796
652.660;  -55.110; -147.113;  -89.797
652.931; -138.958; -897.112; -871.797
653.202;  -85.707; -382.112; -541.798
653.473;  -85.355; -633.112; -533.798
653.744;  163.672; -595.112; -590.798
654.015;  146.874; -356.112; -303.799
654.286;  -78.124; -642.111; -663.799
654.557;  -44.247; -586.111; -521.799
654.828; -155.371;-1114.111;-1088.800
655.099;  -91.469; -404.111; -291.800
655.370;  -90.842; -427.111; -543.801
655.641; -122.290; -656.110; -714.801
655.911; -111.813; -618.110; -638.801
656.182;   45.213;  437.890;  387.198
656.453;   90.165;  830.890;  746.198
656.724;  -68.758; -466.110; -426.802
656.994;  -79.306; -553.109; -568.803
657.265;  -92.529; -862.109; -873.803
657.536;  -91.127; -500.109; -377.804
657.806; -104.176; -561.109; -593.804
658.077; -140.874; -866.109; -950.804
658.347;  -99.147; -523.108; -598.805
658.618; -108.745; -646.108; -694.805
658.888;  -18.593;  -41.108;  112.195
659.159;  -73.167; -432.108; -548.806
659.429;  -22.115; -292.108; -349.806
659.700;   15.437; -435.107; -390.807
659.970;  -13.336; -370.107; -359.807
660.241;   16.091; -754.107; -921.807
660.511;  503.268; -147.107; -174.808
660.781;   97.469; -793.106; -748.808
661.052;  -49.804; -222.106; -381.808
661.322;  -36.177;   21.894;   -9.809
661.592;   12.425;  257.894;  148.191
661.862;  -85.023; -369.106; -382.810
662.133; -100.947; -551.105; -502.810
662.403; -119.820; -770.105; -676.810
662.673;  -61.243; -256.105; -213.811
662.943;  -97.691; -612.105; -551.811
663.213;  -15.139;  -85.105;  -81.811
663.483;  -70.437; -593.104; -568.812
663.753;  -43.211; -194.104; -152.812
664.023;  -16.509;   68.896;  -32.813
664.293;  -63.907; -319.104; -126.813
664.563; -108.430; -694.104; -648.813
664.833; -124.403; -743.103; -608.814
665.103; -134.777; -730.103; -793.814
665.373;  -98.100; -766.103; -806.814
665.643;  -85.473; -863.103; -918.815
665.913;   53.504; -534.103; -714.815
666.182;  150.356; -685.102; -719.816
666.452;  279.608;  -22.102;  -89.816
666.722;  -14.791; -724.102; -784.816
666.992; -133.664; -948.102; -921.817
667.261;  -81.587; -824.102; -808.817
667.531;  195.840;  134.899;   45.183
667.801;  530.142; -440.101; -412.818
668.070;  235.018;  714.899;  697.182
668.340; -102.780; -883.101; -840.819
668.609;   82.672;  588.900;  301.181
668.879;  -80.826; -490.100; -558.819
669.149;  -62.674; -539.100; -516.820
669.418; -121.172; -698.100; -726.820
669.688;  -20.171; -482.100; -666.820
669.957;   90.456; -423.099; -546.821
670.226;  -13.367; -268.099; -331.821
670.496;  -98.340; -431.099; -635.822
670.765;  -77.588; -418.099; -501.822
671.034; -132.337; -872.099; -828.822
671.304;  -16.560;   55.902; -111.823
671.573; -144.383;-1085.098; -957.823
671.842;   87.594; -380.098; -294.823
672.112;   36.246; -692.098; -586.824
672.381;    4.548; -239.098; -214.824
672.650; -134.301;-1005.097;-1021.825
672.919; -100.249; -631.097; -507.825
673.188;  -94.147; -681.097; -878.825
673.457; -145.345;-1101.097;-1143.826
673.726;  -82.243; -579.096; -646.826
673.995;  -40.367; -533.096; -479.826
674.265;  -21.665; -263.096; -333.827
674.534;    3.212; -183.096; -235.827
674.802;   13.464; -618.096; -703.828
675.071; 1047.691; -886.095; -801.828
675.340; 4110.868; -464.095; -339.828
675.609; 1377.144;  103.905;   82.171
675.878;   83.496; -949.095; -893.829
676.147;   31.148;  -26.095;   -8.829
676.416;  104.300; -210.094; -294.830
676.685;  770.502; 1000.906; -622.830
676.953;  138.953; -603.094; -452.831
677.222;  -20.820; -193.094; -273.831
677.491;  -29.118;  -24.094; -127.831
677.759;   -4.566;   11.907;  172.168
678.028;  -17.064; -279.093; -222.832
678.297;   -1.762;   71.907;  197.168
678.565; -150.211; -898.093; -944.833
678.834;  -41.234; -311.093; -268.833
679.102;  -85.907; -411.092; -391.834
679.371; -133.630; -898.092; -727.834
679.639; -135.253; -797.092; -786.834
679.908; -118.852; -794.092; -724.835
680.176; -153.325; -895.091; -941.835
680.445;  -64.023; -346.091; -352.835
680.713;  -24.771;  -58.091;  -23.836
680.982;  -77.919; -523.091; -525.836
681.250; -113.942; -578.091; -507.837
681.518;  -87.291; -534.090; -751.837
681.787;  -23.189; -204.090; -167.837
682.055;  -61.937; -490.090; -422.838
682.323; -146.385; -993.090; -992.838
682.591;   36.892; -216.090; -538.838
682.859;   81.918;    9.911;  -35.839
683.128;   24.470;  232.911;  497.161
683.396; -164.953;-1102.089;-1122.840
683.664;  -33.926; -241.089;   21.160
683.932;   -5.324;  144.911;  -76.840
684.200;  -82.597; -576.088; -320.841
684.468;  -28.521;  -73.088; -124.841
684.736;  -29.869; -214.088; -175.841
685.004; -125.667;-1024.088; -982.842
685.272;  -45.165; -880.088; -774.842
685.540;  -76.888; -499.087; -557.843
685.808;  -75.587; -651.087; -682.843
686.076;  -92.060; -894.087; -969.843
686.343;  -65.208; -601.087; -815.844
686.611;   43.219; -195.087; -224.844
686.879;  472.371; -530.086; -553.844
687.147; 3465.423; -483.086; -480.845
687.414; 1008.999;  -12.086; -169.845
687.682;   12.876; -658.086; -757.846
687.950;  323.978;  259.915;  263.154
688.217;    7.255; -792.085; -760.846
688.485;   -9.393; -632.085; -636.847
688.753;  567.558;  -11.085; -102.847
689.020;  197.535; -820.085; -851.847
689.288;  -96.088; -853.084; -787.848
689.555;  -18.861; -195.084; -148.848
689.823;  -63.134; -241.084; -345.849
690.090;  -77.757; -546.084; -651.849
690.358; -147.181; -877.084; -897.849
690.625;   12.596;  120.917;   45.150
690.892;  -88.302; -403.083; -369.850
691.160;  -15.100;   72.917;  -35.850
691.427;  -10.198;  141.917;  130.149
691.694; -124.172; -855.083; -929.851
691.962; -143.370;-1177.082;-1060.852
692.229;   -2.568;  127.918;   56.148
692.496;   75.784;  130.918;  -49.852
692.763;    3.286; -164.082; -201.853
693.031;  -75.037; -739.082; -716.853
693.298;  -29.411; -509.081; -368.853
693.565;  335.491; -155.081; -163.854
693.832; 1354.068;   -5.081;   -9.854
694.099;  168.945; -643.081; -642.855
694.366;  -49.053; -882.081; -896.855
694.633;  -43.777; -920.080; -633.855
694.900;  738.650; 4367.920; -114.856
695.167;  435.902; -214.080; -380.856
695.434;  103.154; -646.080; -623.856
695.701;  185.031;  121.921;  -61.857
695.968;  475.207; -365.079; -361.857
696.234;  980.134; -415.079; -646.858
696.501;10049.211; -776.079; -614.858
696.768; 5144.813; -554.079; -617.858
697.035;  295.165; -632.078; -667.859
697.302;   34.667; -448.078; -552.859
697.568;    2.068; -458.078; -497.859
697.835;  -42.455; -683.078; -624.860
698.102;  -38.228; -498.078; -407.860
698.368;   58.724;  384.923;  396.139
698.635;  -25.549;  -47.077; -424.861
698.901;  -12.548; -240.077; -348.861
699.168;   72.804; -534.077; -456.862
699.435;   90.781;  -72.077;  -13.862
699.701;  -99.642; -868.076; -764.862
699.968;   17.585;  144.924; -441.863
700.234;  -94.238; -783.076; -822.863
700.500;  -60.812; -448.076; -539.864
700.767;    6.765;   -1.075;   26.136
701.033; -124.108;-1015.075; -963.864
701.299;  -62.156; -450.075; -483.865
701.566;  119.121;  950.925;  763.135
701.832;   28.222;  -31.075;  -76.865
702.098;  -89.726;-1054.074;-1034.866
702.365;  -90.199;-1098.074;-1030.866
702.631;  -12.347;-1038.074;-1063.867
702.897; 1370.405; -765.074; -676.867
703.163; 2296.757;  348.926;  254.133
703.429;  168.183; -256.073; -273.868
703.695;  -36.265; -796.073; -792.868
703.961;   20.687; -214.073; -210.868
704.227;  -54.836; -630.073; -725.869
704.493;  121.691;  613.927;  510.131
704.759;  -34.458; -565.072; -540.870
705.025;   18.019; -203.072; -194.870
705.291;  -16.304; -666.072; -562.870
705.557;  179.298;  719.928;   34.129
705.823;   16.600; -742.072; -694.871
706.089;  124.977; -307.071; -326.871
706.355;  334.803; -315.071; -244.872
706.620; 5120.480; -776.071; -729.872
706.886; 7524.807; -309.071; -362.873
707.152;  722.959; -818.070; -973.873
707.418;  -15.864;-1153.070;-1186.873
707.683;    4.687; -550.070; -530.874
707.949;  -46.436; -547.070; -578.874
708.215;   -5.409; -129.070; -207.874
708.480;  -22.782; -520.069; -420.875
708.746;  100.445;   68.931;   28.125
709.011;  -72.803; -578.069; -612.876
709.277;  -79.852; -538.069; -543.876
709.542;  -38.475; -428.069; -387.876
709.808;    3.302;  -59.068;   89.123
710.073;  -91.221; -577.068; -695.877
710.339;  -36.119; -242.068; -228.877
710.604;   81.507; -780.068; -845.878
710.869;  329.684; -277.068; -366.878
711.135;  -58.289; -715.067; -628.879
711.400;  -83.462; -507.067; -608.879
711.665;  -67.560; -404.067; -479.879
711.931;  -81.883; -661.067; -677.880
712.196; -115.982; -876.067; -954.880
712.461;  108.970; -402.066; -490.880
712.726;  146.197; -727.066; -771.881
712.991;  -88.751; -647.066; -664.881
713.256;  -46.624; -350.066; -332.882
713.521;  -55.273; -417.065; -381.882
713.787;  -66.671; -454.065; -472.882
714.052;  -28.444; -214.065; -400.883
714.317;  -95.192;-1045.065; -981.883
714.581;  979.285; -374.065; -268.883
714.846; 1334.087; -822.064; -888.884
715.111;  115.838;  261.936;  257.116
715.376;  -26.935;  -86.064; -223.885
715.641;  -17.483; -365.064; -367.885
715.906;  320.719;   15.936; -551.885
716.171;  137.721;  221.937;  209.114
716.436;   46.847;  -78.063; -104.886
716.700; -101.476; -818.063; -692.886
716.965; -123.074; -794.063; -807.887
717.230;  -65.547; -339.063; -392.887
717.494;  -30.795;  -40.062; -134.888
717.759;  -85.018; -784.062; -640.888
718.024;    5.233;  269.938;  250.112
718.288;   76.560;  685.938;  395.111
718.553; -145.313; -803.062; -977.889
718.817; -132.736; -883.061; -899.889
719.082;  -30.034; -115.061; -125.890
719.346; -139.133;-1000.061; -947.890
719.611;  -29.256; -300.061; -255.891
719.875;  -97.329; -568.060; -537.891
720.140;  -67.552; -453.060; -603.891
720.404;   39.450; -136.060; -249.892
720.668;  866.002; -475.060; -411.892
720.933;  339.578;  146.940;  137.108
721.197; -101.595; -667.059; -600.893
721.461; -127.168; -851.059; -826.893
721.725;  -16.091;  -21.059; -250.894
721.990;  -50.339; -284.059; -204.894
722.254;  -21.288;  -26.059; -108.894
722.518;  -64.936; -286.058; -442.895
722.782;  -91.809; -743.058; -594.895
723.046;  119.518;  614.942;  570.105
723.310;   39.670;  374.942;  210.104
723.574;  -99.128; -654.058; -614.896
723.838; -104.677; -576.057; -642.897
724.102;  -43.375; -226.057; -239.897
724.366; -145.098;-1032.057; -978.897
724.630;  -91.646; -749.057; -571.898
724.894;  -80.144; -722.057; -514.898
725.158;   -4.093;   38.944; -295.898
725.422;  -43.366; -394.056; -327.899
725.685;  -72.214; -441.056; -349.899
725.949;  -83.412; -566.056; -519.900
726.213;  -79.760; -732.056; -811.900
726.477;  181.842;-1020.055; -933.900
726.740;  141.868; -274.055; -104.901
727.004;  320.770; -384.055; -510.901
727.268; 3166.472; -442.055; -400.901
727.531;  885.749; -961.055; -775.902
727.795;  -44.049; -713.054; -673.902
728.059;  -75.548; -552.054; -557.903
728.322;  -69.346; -841.054; -669.903
728.586;   46.506; -692.054; -701.903
728.849;  -76.142; -695.053; -756.904
729.112; -115.915; -812.053; -912.904
729.376; -108.163; -959.053; -905.904
729.639;  -78.412; -536.053; -536.905
729.903;  -99.885; -733.053; -699.905
730.166;  -40.083; -437.052; -399.906
730.429;  -26.156; -317.052; -468.906
730.693;  -65.029; -355.052; -894.906
730.956;  198.472;  810.948;  651.093
731.219;  728.724; -310.052; -103.907
731.482;  126.151;-1003.051; -894.907
731.745;  107.478; -794.051; -935.908
732.009;   11.980;  -30.051;   50.092
732.272;  -86.643; -904.051; -771.909
732.535;  -30.842; -300.051; -310.909
732.798; -158.765;-1083.050;-1166.909
733.061;  -66.288; -430.050; -456.910
733.324;    0.439;   31.950; -180.910
733.587;   77.066;  290.950;  365.090
733.850;  -81.608; -973.049;-1050.911
734.113;   38.944;   33.951;   32.089
734.376;    3.571; -328.049; -447.912
734.639;  231.298; 1188.951; 1011.088
734.901;   73.950; -180.049; -402.912
735.164;  521.676; -883.048; -837.913
735.427; 1329.803; -166.048; -355.913
735.690;  129.780; -205.048; -234.913
735.952;  -28.943; -923.048; -925.914
736.215;  -26.991;-1113.048;-1009.914
736.478;   43.986; -771.047; -774.915
736.740;  230.162;   33.953;  129.085
737.003;  709.564; -658.047; -672.915
737.266; 4204.341;  -94.047;   46.084
737.528;  450.443; -682.047; -660.916
737.791;  309.470; -316.046; -327.916
738.053;  781.996;  465.954;  649.083
738.316;10491.748; -162.046; -136.917
738.578; 7494.250; -770.046; -736.918
738.841;  412.927; -382.046; -446.918
739.103;  179.329; -875.045; -777.918
739.365;  515.156;   79.955;  -69.919
739.628;   -2.918; -884.045; -805.919
739.890;  -20.616; -758.045; -710.919
740.152;  -41.139; -692.044; -754.920
740.414;  -23.912; -408.044; -359.920
740.677;  -41.235; -785.044; -634.921
740.939;  -42.709; -587.044; -487.921
741.201;  283.968; -432.044; -572.921
741.463;   53.920; -689.043; -745.922
741.725;   14.347;  -21.043; -199.922
741.987;   46.549;  220.957;  116.078
742.249;   20.576; -751.043; -859.923
742.511;  226.002; -703.043; -794.923
742.773;   26.579; -546.042; -546.924
743.035;  133.706;  796.958;  533.076
743.297;  -31.792; -963.042;-1013.924
743.559;  767.610; -278.042; -262.925
743.821;   72.436; -735.042; -744.925
744.083;   24.313;  -44.041; -149.925
744.345;  -96.335; -869.041; -892.926
744.607;   34.592;   75.959;  122.074
744.868;  -63.431; -490.041; -554.927
745.130; -117.179; -994.041;-1008.927
745.392;   38.547;   -1.040;  -44.927
745.653;    1.774; -411.040; -378.928
745.915;  147.951;  896.960;  631.072
746.177;   55.778;   35.960;  -43.928
746.438;  -10.270; -428.040; -543.929
746.700;  -34.244; -947.039; -988.929
746.961;    1.933; -659.039; -740.930
747.223;  132.135; -190.039;  -74.930
747.484;   93.962; -391.039; -471.930
747.746;  154.114;  -23.038; -106.931
748.007;  123.566; -647.038; -689.931
748.269;  315.242; -468.038; -440.931
748.530;  521.794; -852.038; -638.932
748.791;  270.171; -354.038; -420.932
749.053;  435.323;  286.963;  163.067
749.314;  483.825; -236.037; -169.933
749.575;  507.951; -945.037; -905.933
749.836;  852.953; -217.037;   86.066
750.098; 2460.630;  -60.037;  -21.934
750.359;37080.457;  414.964;  555.066
750.620; 9628.234; -121.036; -220.935
750.881; 1070.911; -585.036; -513.935
751.142; 1393.937; -950.036; -938.936
751.403;16576.114; -789.036; -705.936
751.664; 7479.366;-1034.035; -999.936
751.925;  501.943; -175.035; -262.937
752.186;  270.945; -298.035; -278.937
752.447;  136.921; -590.035; -445.937
752.708;   37.448; -532.035; -648.938
752.969;   17.575; -566.034; -576.938
753.230;   -6.398; -777.034; -672.939
753.491;   15.104; -650.034; -631.939
753.751;   70.131;  109.966;   19.061
754.012;  100.207;  258.967;  181.060
754.273;   49.234; -174.033;  -71.940
754.534;   12.336; -487.033; -580.940
754.794;  -77.862; -926.033; -911.941
755.055;  135.315; 1051.967;  881.059
755.316;  -42.809; -700.032; -566.942
755.576;  -33.282; -606.032; -576.942
755.837;  -41.830; -527.032; -695.942
756.097;  -41.653; -530.032; -564.943
756.358;  -80.651; -725.032; -770.943
756.618;  -50.424; -705.031; -641.943
756.879;    0.552; -254.031; -349.944
757.139; -103.721;-1098.031;-1116.944
757.400;  -43.469; -538.031; -553.945
757.660;   -7.342; -365.031; -401.945
757.920;   20.160; -266.030; -228.945
758.181;   -4.989; -468.030; -351.946
758.441;  -90.612; -870.030; -809.946
758.701;  -24.960; -308.030; -215.946
758.961;  -12.533; -220.030; -278.947
759.222;  -42.981; -574.029; -502.947
759.482;  -71.154; -683.029; -723.948
759.742;  -78.778; -706.029; -547.948
760.002;    8.524;  -83.029; -143.948
760.262;   26.826;   50.972;  182.051
760.522;  -50.022; -498.028; -574.949
760.782;  -49.395; -738.028; -612.949
761.042;  -46.194; -618.028; -573.950
761.302;   54.358;   55.972;  -18.950
761.562;   47.810; -164.027; -154.951
761.822;   85.437; -710.027; -551.951
762.082;  -35.711;-1104.027;-1093.951
762.342;   61.541; -328.027; -403.952
762.601;   66.517; -567.027; -506.952
762.861;  372.019; -281.026; -207.952
763.121;  408.321; -406.026; -411.953
763.381; 7187.448; -499.026; -485.953
763.640; 8065.100; -139.026; -307.954
763.900;  374.826; -242.026; -203.954
764.160;   76.853; -458.025; -491.954
764.419;   -9.820; -726.025; -782.955
764.679;  -70.018; -795.025; -726.955
764.939;  -11.516; -124.025; -210.955
765.198;  -67.414; -608.025; -563.956
765.458;  -72.488; -710.024; -612.956
765.717;  -91.461; -454.024; -590.957
765.976;  -58.109; -428.024; -411.957
766.236;  -73.457; -475.024; -610.957
766.495;   17.945;  260.977;   73.042
766.755;  -81.229;-1090.023; -987.958
767.014;   11.298; -594.023; -665.958
767.273;  -68.600; -373.023; -397.959
767.533;  -43.248; -228.023; -307.959
767.792;  -38.321; -151.022; -188.960
768.051;  -55.744; -228.022; -276.960
768.310;  -90.018; -546.022; -650.960
768.569;    3.009; -161.022;    4.039
768.828;  -28.314; -285.022; -363.961
769.088; -113.487;-1050.021; -942.961
769.347;  -87.360; -755.021; -599.962
769.606;  -85.509; -876.021; -857.962
769.865; -109.832;-1016.021;-1033.963
770.124;  -13.330; -411.021; -336.963
770.383;  -39.528; -778.020; -910.963
770.641;   -2.726; -398.020; -400.964
770.900;  -71.224; -953.020; -846.964
771.159;  -42.573; -851.020; -951.964
771.418;  -34.571; -917.020; -779.965
771.677;  120.106; -224.019; -293.965
771.936;  127.258; -794.019; -865.966
772.194; 2014.660; -465.019; -437.966
772.453;10613.561; -213.019; -391.966
772.712;  734.663;  416.982;  329.033
772.970;  122.090;   32.982;   63.033
773.229;   82.192;  -22.018;  102.033
773.488;  -76.181; -814.018; -770.968
773.746;   41.571;  296.982;  335.032
774.005;    7.872;  190.983;  -22.969
774.263;   -4.951;  243.983;  177.031
774.522;  -48.774; -422.017; -548.969
774.780;  -64.397; -484.017; -417.970
775.039;  -93.420; -551.017; -531.970
775.297;  -32.469; -135.016; -351.970
775.555; -100.792; -489.016; -612.971
775.814; -133.140; -618.016; -570.971
776.072; -124.163; -749.016; -740.971
776.330;  -90.911; -630.016; -520.972
776.589; -128.335; -703.015; -721.972
776.847; -122.858; -645.015; -624.973
777.105; -162.081;-1016.015;-1032.973
777.363;  -84.979; -459.015; -454.973
777.621; -149.402; -660.015; -717.974
777.879;  -35.175;  -42.014;   32.026
778.138;  -95.624; -554.014; -717.974
778.396; -106.397; -585.014; -526.975
778.654; -168.495;-1015.014; -970.975
778.912;  -78.668; -269.014; -371.976
779.170; -125.016; -880.013; -803.976
779.427; -145.815; -922.013; -897.976
779.685; -133.838; -880.013; -832.977
779.943;  -85.361; -654.013; -593.977
780.201; -170.809; -964.012; -883.978
780.459; -112.707; -651.012; -610.978
780.717;  -89.380; -440.012; -390.978
780.974;  -85.279; -449.012; -490.979
781.232;  -64.052; -358.012; -338.979
781.490;  -73.250; -551.011; -472.979
781.747; -106.848; -555.011; -476.980
782.005;   19.704;  462.989;  254.020
782.263; -175.795; -542.011;-1004.981
782.520;  -93.418; -326.011; -501.981
782.778; -164.816;-1013.010;-1051.981
783.035; -174.114; -962.010; -938.982
783.293;  -60.687; -248.010; -206.982
783.550;  -64.710; -134.010; -198.982
783.808; -129.584; -764.010; -776.983
784.065; -153.057; -745.009; -874.983
784.322;  -50.605;   25.991;  -86.984
784.580; -140.753; -915.009; -771.984
784.837; -107.651; -392.009; -466.984
785.094; -143.975; -783.009; -762.985
785.352;  -60.248; -304.008; -404.985
785.609;  -83.996; -934.008; -839.985
785.866;  -86.019; -345.008; -401.986
786.123;  -54.617; -639.008; -583.986
786.380;  -89.240; -665.008; -604.987
786.637;  -30.214; -225.007; -380.987
786.895;  -12.362; -456.007; -543.987
787.152;  -38.260; -135.007; -267.988
787.409;  -45.283; -123.007; -225.988
787.666;  -85.981; -299.006; -378.988
787.923; -116.655; -616.006; -695.989
788.179;  -94.953; -551.006; -584.989
788.436; -107.926; -585.006; -585.990
788.693;  -33.449;  -92.006;  -87.990
788.950;  152.528; -125.005; -112.990
789.207;  248.830; -381.005; -372.991
789.464;  -56.719; -161.005; -301.991
789.720;   -5.242;  150.995;  110.009
789.977; -173.740;-1003.005; -671.992
790.234;  -32.988;   44.996;  -66.992
790.490; -161.936; -884.004;-1031.993
790.747;  -18.235;  -85.004;   22.007
791.004;  -12.983; -426.004; -348.993
791.260;  -80.506; -430.004; -560.994
791.517; -114.679; -843.003; -788.994
791.773;  -53.377; -379.003; -342.994
792.030; -102.775; -596.003; -660.995
792.286;  -92.099; -686.003; -636.995
792.543;  -17.872;  -74.002; -159.995
792.799;  -53.270; -584.002; -382.996
793.055; -170.843;-1179.002;-1210.996
793.312;  -91.966; -827.002; -816.997
793.568;  -58.665; -746.002; -599.997
793.824;   37.337; -226.001; -284.997
794.081;   24.939; -447.001; -508.998
794.337;   52.816; -664.001; -561.998
794.593; 1264.868; -319.001; -271.999
794.849; 6490.920; -746.001; -772.999
795.105;  334.771; -270.000; -261.999
795.361;   12.798; -490.000; -457.000
795.617;  -72.825; -875.000; -945.000
795.873;  -54.250; -360.000; -407.000
796.129;  -50.000; -368.000; -306.000
796.385;   -5.925; -124.000; -156.000
796.641;   60.000;  412.000;  550.000
796.897;  -90.050; -666.000; -635.000
797.153;   54.300;  453.000;  357.000
797.409;  -97.875; -785.000; -868.000
797.665;  -78.475; -625.000; -732.000
797.921;  -71.950; -775.000; -762.000
798.176;  -54.450; -744.000; -747.000
798.432;  -63.625; -824.000; -596.000
798.688;  -77.350;-1174.000;-1078.000
798.943;   69.975; -165.000; -147.000
799.199;  -11.800;-1005.000; -959.000
799.455;  222.050;  369.000;  316.000
799.710;  121.400; -813.000; -380.000
799.966;  297.000; -162.000; -160.000
800.221;  435.925; -638.000; -721.000
800.477;10056.600; -743.000; -710.000
800.732; 9220.300; -773.000; -800.000
800.988;  607.800;  205.000;  -19.000
801.243; 1608.300; -454.000; -344.000
801.498; 7135.600; -814.000; -739.000
801.754;  418.300; -289.000; -163.000
802.009;   76.525; -257.000; -335.000
802.264;  -48.750; -967.000;-1033.000
802.520;   37.775;  222.000;   -3.000
802.775;  -61.175; -524.000; -359.000
803.030;   47.300;  395.000;  356.000
803.285; -124.125; -840.000; -903.000
803.540;  -48.075; -686.000; -699.000
803.795;  -46.125; -648.000; -583.000
804.051;  -57.975; -279.000; -346.000
804.306;   24.700;  168.000;  128.000
804.561;  151.950;  451.000;  362.000
804.816;  135.175;  714.000;  861.000
805.071;    7.075; -185.000; -280.000
805.325;  221.925; -257.000; -427.000
805.580;  -91.425; -841.000; -877.000
805.835;  -17.275; -204.000; -297.000
806.090;  -65.475; -760.000; -676.000
806.345;  -24.050; -344.000; -264.000
806.600;  -29.150; -549.000; -632.000
806.854;  -28.650; -408.000; -538.000
807.109;   -9.225; -493.000; -577.000
807.364;    2.650; -407.000; -328.000
807.618;    4.850; -415.000; -381.000
807.873;   56.450; -470.000; -494.000
808.128;  114.350; -257.000; -518.000
808.382;  105.000; -224.000; -332.000
808.637;   66.525; -440.000; -511.000
808.891;  181.050; -257.000; -180.000
809.146;   99.825; -902.000; -794.000
809.400;  268.975; -848.000; -923.000
809.654;  354.725; -779.000; -551.000
809.909;  489.025; -841.000; -927.000
810.163; 6604.550; -813.000; -651.000
810.418;17755.950; -940.000; -861.000
810.672; 1071.650; -685.000; -690.000
810.926;  701.675; -993.000; -973.000
811.180; 1363.875; -439.000; -372.000
811.434;30008.900;  240.000;  135.000
811.689;12657.475; -231.000; -365.000
811.943;  623.775; -936.000; -953.000
812.197;  319.200; -893.000; -671.000
812.451;  122.325; -379.000; -514.000
812.705;  -21.400; -809.000; -619.000
812.959;   -7.650; -263.000; -388.000
813.213;   -1.875; -283.000; -209.000
813.467;   60.475;  470.000;  253.000
813.721; -103.875; -764.000; -792.000
813.975; -107.500; -826.000; -877.000
814.229;   45.000;  430.000;  353.000
814.482;  -60.200; -517.000; -566.000
814.736; -111.650; -766.000; -744.000
814.990; -132.700; -779.000; -872.000
815.244;  -64.200; -228.000; -285.000
815.497;  -88.700; -636.000; -601.000
815.751;  -14.150; -141.000;   82.000
816.005;  -83.575; -470.000; -586.000
816.258;  -67.500; -510.000; -363.000
816.512;  -91.325; -693.000; -610.000
816.766;   10.300;  121.000;  157.000
817.019;    9.750;  148.000;  149.000
817.273; -117.925;-1000.000; -802.000
817.526;  -22.100; -206.000; -173.000
817.779;  -43.175;-1049.000; -960.000
818.033;  -57.450; -693.000; -807.000
818.286; -117.850; -725.000; -792.000
818.540;  -82.150; -403.000; -403.000
818.793;  -78.425; -402.000; -489.000
819.046; -110.675; -582.000; -520.000
819.299;  -37.000; -157.000; -166.000
819.553; -107.575; -552.000; -592.000
819.806; -154.950;-1016.000; -838.000
820.059;  -77.125; -334.000; -354.000
820.312;   11.375;  152.000;  185.000
820.565;  -21.500;  110.000;  -27.000
820.818;  -50.725;  -59.000; -173.000
821.071; -156.850;-1041.000; -957.000
821.324;  -99.875; -536.000; -540.000
821.577;  -98.675; -457.000; -483.000
821.830;  -56.775; -270.000; -172.000
822.083; -134.425; -733.000; -288.000
822.336;  -48.900; -261.000; -167.000
822.589; -149.300; -805.000; -688.000
822.842; -143.775; -875.000; -770.000
823.094; -185.400;-1076.000;-1114.000
823.347; -135.400; -925.000; -729.000
823.600;    9.425;  402.000;  187.000
823.853;  -49.975; -311.000; -267.000
824.105;  -84.675; -331.000; -575.000
824.358;  -96.600; -617.000; -716.000
824.611;   28.125;  234.000;   40.000
824.863;  -44.325; -612.000; -591.000
825.116;   50.500;  -33.000;   27.000
825.368;   83.150; -366.000; -372.000
825.621;  161.825; -186.000; -240.000
825.873;   80.825; -704.000; -737.000
826.126;  561.600; -669.000; -641.000
826.378;11412.375; -389.000; -505.000
826.630; 2956.575; -890.000; -898.000
826.883;   52.500; -754.000; -693.000
827.135;   52.600; -279.000; -270.000
827.387; -105.200; -893.000; -839.000
827.639;  -32.050;  -86.000;   32.000
827.892; -119.050; -742.000; -582.000
828.144; -148.775; -848.000; -804.000
828.396;  -34.325;  104.000;  -80.000
828.648; -107.450; -440.000; -333.000
828.900; -145.975; -702.000; -795.000
829.152; -113.050; -684.000; -683.000
829.404;  -49.500; -215.000; -267.000
829.656;  -43.775;  321.000;  214.000
829.908;  -22.250;  393.000;  229.000
830.160; -169.000;-1064.000;-1047.000
830.412;  -90.375; -481.000; -430.000
830.664; -119.100; -557.000; -665.000
830.916;  -76.650; -268.000; -206.000
831.167; -183.650;-1073.000; -951.000
831.419; -105.550; -623.000; -566.000
831.671; -154.200; -764.000; -809.000
831.923;  -96.475; -311.000; -447.000
832.174;  -63.950; -273.000; -331.000
832.426; -109.125; -493.000; -582.000
832.678; -193.525;-1043.000;-1091.000
832.929; -155.400; -947.000; -935.000
833.181;  -76.300; -575.000; -677.000
833.432;  -48.225;  -59.000; -186.000
833.684;  -19.225;  112.000;  -27.000
833.935; -111.150; -610.000; -566.000
834.187; -131.100; -829.000; -823.000
834.438;  -43.375;  -58.000;  -25.000
834.689;  -72.625; -255.000; -123.000
834.941;  -50.825; -343.000; -244.000
835.192;  -92.550; -590.000; -533.000
835.443; -102.825; -419.000; -506.000
835.695;  -15.950;  138.000;  -16.000
835.946;  -84.975; -608.000; -378.000
836.197;  -93.700; -599.000; -622.000
836.448;  -95.025; -528.000; -395.000
836.699;  -59.475; -253.000; -341.000
836.950;  -12.125;   72.000;    7.000
837.201; -145.000;-1003.000; -987.000
837.452;  -54.850; -356.000; -170.000
837.703; -106.000; -791.000; -737.000
837.954;  -39.600; -205.000; -365.000
838.205;  -88.100;-1029.000;-1008.000
838.456;  174.075; -196.000; -282.000
838.707;    9.675; -423.000; -519.000
838.958;   10.675; -634.000; -647.000
839.209;  288.975;   18.000;   40.000
839.460;  120.075; -439.000; -201.000
839.710;  169.925; -135.000; -297.000
839.961;  423.625;  730.000;  612.000
840.212;  321.025; -382.000; -497.000
840.462; 1089.150; -328.000; -277.000
840.713;17652.525; -571.000; -536.000
840.964; 7483.875;  -62.000; -143.000
841.214;  496.075; -384.000; -624.000
841.465;  580.650; -214.000; -141.000
841.715;  521.725; -417.000; -380.000
841.966;  678.600; -746.000; -685.000
842.216; 9121.100; -330.000; -431.000
842.466;36227.500; -169.000; -313.000
842.717; 2100.325; -964.000; -952.000
842.967;  332.700; -635.000; -641.000
843.217;  278.325;   20.000;   28.000
843.468;   83.575; -104.000; -132.000
843.718;  -33.400; -718.000; -726.000
843.968;  -74.650; -837.000; -765.000
844.218;   18.525; -315.000; -262.000
844.469;  -45.800; -577.000; -561.000
844.719; -104.100; -537.000; -682.000
844.969;  -87.425; -550.000; -580.000
845.219; -149.000; -814.000; -862.000
845.469;  -68.825; -392.000; -342.000
845.719; -143.650; -792.000; -884.000
845.969;  -13.600;  119.000;  174.000
846.219; -135.400; -738.000; -720.000
846.469;   24.425;  464.000;  432.000
846.718;  -53.425; -115.000;   31.000
846.968; -128.650; -827.000; -827.000
847.218;  -67.700; -224.000; -371.000
847.468;  -99.550; -586.000; -555.000
847.718; -143.150; -827.000; -798.000
847.967; -134.400; -826.000; -915.000
848.217;  -85.075; -449.000; -569.000
848.467;  -73.725; -405.000; -376.000
848.716;  -95.075; -708.000; -725.000
848.966;    8.875; -372.000; -358.000
849.215;  -65.650; -428.000; -419.000
849.465;  -84.300; -785.000; -615.000
849.714; -141.150;-1132.000;-1150.000
849.964;  -59.925; -551.000; -613.000
850.213;  -35.600; -393.000; -355.000
850.463;   79.575;  137.000;  340.000
850.712;    0.800; -542.000; -567.000
850.961;   20.550; -739.000; -678.000
851.211;   85.825; -513.000; -504.000
851.460;  158.275; -635.000; -650.000
851.709;  538.025;  -25.000;   18.000
851.958; 9985.650; -912.000; -750.000
852.208;12846.225; -859.000; -879.000
852.457;  475.525; -181.000;  -13.000
852.706;   53.225; -791.000; -823.000
852.955;   32.700; -507.000; -528.000
853.204;  -66.350; -521.000; -461.000
853.453;  -73.625; -418.000; -458.000
853.702; -134.725; -660.000; -750.000
853.951; -100.950; -532.000; -520.000
854.200; -112.275; -613.000; -562.000
854.449; -137.325; -695.000; -661.000
854.698;  -95.775; -340.000; -279.000
854.946;  -66.450; -181.000; -284.000
855.195; -151.875; -843.000; -868.000
855.444; -102.450; -395.000; -420.000
855.693; -127.000; -345.000; -432.000
855.941; -106.750; -387.000; -516.000
856.190;  -60.925; -256.000; -382.000
856.439; -139.475; -652.000; -703.000
856.687;  -61.850;  -99.000;  -72.000
856.936; -115.850; -621.000; -323.000
857.184; -186.125;-1067.000;-1020.000
857.433;  -99.350; -423.000; -512.000
857.681; -175.500; -989.000; -953.000
857.930;  -77.825; -282.000; -433.000
858.178; -178.325; -856.000; -929.000
858.427; -151.800; -802.000; -781.000
858.675; -114.325; -377.000; -544.000
858.923; -107.875; -527.000; -819.000
859.172; -186.325;-1094.000;-1070.000
859.420;  -93.175; -339.000; -239.000
859.668; -128.250; -624.000; -628.000
859.916;  -16.425;  109.000;  115.000
860.164; -113.825; -699.000; -603.000
860.413;  293.700; -878.000; -696.000
860.661;  251.550; -709.000; -577.000
860.909;  -73.650; -339.000; -325.000
861.157;  -89.050; -277.000; -444.000
861.405; -113.850; -534.000; -670.000
861.653;   19.475;  310.000;  310.000
861.901;  167.800; -543.000; -613.000
862.149;   10.200; -801.000; -824.000
862.396;  -78.200; -297.000; -187.000
862.644;  -89.550; -368.000; -347.000
862.892;  -37.075;   98.000;  138.000
863.140; -132.950; -549.000; -530.000
863.388; -155.175; -815.000; -759.000
863.635; -135.675; -642.000; -601.000
863.883;   -6.625;  231.000;  190.000
864.131;  -95.300; -288.000; -357.000
864.378; -128.225; -675.000; -540.000
864.626; -101.325; -347.000; -415.000
864.873; -115.575; -556.000; -505.000
865.121; -147.375; -714.000; -799.000
865.368;  -41.875; -173.000;   75.000
865.616;  -58.950;  -33.000;  -40.000
865.863;  -82.325; -462.000; -506.000
866.111; -118.075; -795.000; -824.000
866.358;   13.950; -426.000; -420.000
866.605; 2034.600;  -64.000; -804.000
866.853; 2146.425; -621.000; -537.000
867.100;  -50.975; -728.000; -775.000
867.347; -102.025; -672.000; -611.000
867.594;  -88.950; -740.000; -714.000
867.841;   99.750;   97.000;   17.000
868.089; -139.450; -746.000; -698.000
868.336; -108.250; -477.000; -420.000
868.583; -151.900; -637.000; -741.000
868.830;  -52.600; -131.000; -170.000
869.077; -154.250; -859.000; -787.000
869.324; -123.600; -502.000; -458.000
869.571; -140.575; -398.000; -430.000
869.818; -124.625; -485.000; -439.000
870.065; -110.450; -439.000; -513.000
870.311; -113.500; -456.000; -542.000
870.558; -107.350; -332.000; -311.000
870.805;  -72.275; -320.000; -384.000
871.052; -100.875; -494.000; -369.000
871.298;  -57.275; -204.000; -131.000
871.545;  -82.800; -151.000; -185.000
871.792;  -85.275; -173.000; -222.000
872.038;  -73.025;   43.000; -126.000
872.285; -106.875; -496.000; -387.000
872.532;  -99.725; -357.000; -387.000
872.778;    9.350;  556.000;  403.000
873.025;  -92.075; -384.000; -359.000
873.271;   10.000;  501.000;  578.000
873.517;  -25.775; -133.000; -209.000
873.764;  -27.325; -193.000;  -80.000
874.010;  -83.450; -143.000; -230.000
874.257;  -43.725;  123.000;   90.000
874.503; -124.750; -579.000; -479.000
874.749;  -68.575;   31.000;  275.000
874.995;  -65.875;  -80.000;  -20.000
875.242; -125.350; -540.000; -478.000
875.488; -114.000; -414.000; -439.000
875.734;  -50.200; -106.000; -234.000
875.980;  195.425; -872.000;-1032.000
876.226;  397.800; -157.000; -255.000
876.472;   -4.225;  343.000;  237.000
876.718;  -28.250;  184.000;  158.000
876.964;  -45.625;   56.000;   55.000
877.210; -149.025; -547.000; -677.000
877.456; -149.100; -630.000; -557.000
877.702; -182.500; -821.000; -832.000
877.948;  -92.350; -377.000; -497.000
878.193;   22.400;  361.000;  255.000
878.439; -101.050; -487.000; -472.000
878.685;  -98.100; -272.000; -343.000
878.931; -137.425; -618.000; -676.000
879.176;  -89.775; -201.000; -201.000
879.422; -173.900; -933.000; -820.000
879.668;   27.275;   10.000;   79.000
879.913;  142.375;   53.000;  137.000
880.159;  -69.050; -112.000;  -17.000
880.404;  -62.700; -152.000; -162.000
880.650;  -43.225;   91.000;  141.000
880.895; -167.125; -670.000; -710.000
881.141; -119.000; -454.000; -428.000
881.386; -161.175; -503.000; -658.000
881.631;  -78.575; -311.000; -166.000
881.877;  -40.175;  112.000;  -13.000
882.122; -144.000; -684.000; -600.000
882.367;  -88.725; -136.000; -186.000
882.612;  -69.025;  -80.000; -176.000
882.858; -162.750; -877.000; -823.000
883.103;  -97.850; -297.000; -267.000
883.348; -139.625; -759.000; -852.000
883.593; -153.225; -677.000; -602.000
883.838;  -60.200; -311.000;  -24.000
884.083;   39.075;  353.000;  288.000
884.328;  -93.025; -564.000; -545.000
884.573;  -54.100; -196.000; -143.000
884.818;  185.650; -694.000; -531.000
885.063;  193.525; -348.000; -315.000
885.308;  -95.850; -475.000; -398.000
885.553;    0.575;  245.000;  325.000
885.797; -133.525; -545.000; -615.000
886.042;  -50.425;    8.000;   58.000
886.287;  -81.425; -253.000; -211.000
886.532;  -65.475;   26.000;  204.000
886.776;  -92.050; -407.000; -525.000
887.021; -141.825; -621.000; -574.000
887.265; -159.125; -685.000; -689.000
887.510; -137.600; -557.000; -496.000
887.755;  -92.700; -194.000; -164.000
887.999; -144.575; -552.000; -575.000
888.244;  -50.350;  -58.000;  161.000
888.488;    2.450;  371.000;  393.000
888.732; -125.650; -368.000; -520.000
888.977; -116.550; -622.000; -567.000
889.221; -156.750; -683.000; -659.000
889.465; -111.075; -422.000; -566.000
889.710;  -71.450;  -56.000; -299.000
889.954;   -1.475;  579.000;  467.000
890.198; -145.675; -584.000; -707.000
890.442; -147.975; -716.000; -712.000
890.687; -172.050; -800.000; -753.000
890.931;  -95.550; -273.000; -210.000
891.175; -141.100; -502.000; -500.000
891.419;  -71.100; -105.000; -110.000
891.663;  -97.300; -239.000; -112.000
891.907; -158.925; -801.000; -545.000
892.151; -173.375; -920.000; -815.000
892.395;  -97.775; -274.000; -387.000
892.638;  -19.950;  408.000;  291.000
892.882; -179.925; -780.000; -867.000
893.126;   21.225;  758.000;  558.000
893.370;  -91.225; -167.000; -168.000
893.614; -147.950; -714.000; -715.000
893.857;  -85.925; -183.000; -197.000
894.101; -148.725; -527.000; -631.000
894.345;  -55.075;  300.000;  150.000
894.588;   22.350;  569.000;  380.000
894.832;  -97.050; -178.000;  -84.000
895.075;  -80.250;   15.000;  -92.000
895.319; -127.600; -552.000; -420.000
895.563; -130.400; -413.000; -353.000
895.806; -152.300; -628.000; -741.000
896.049;  -56.975; -576.000; -368.000
896.293;  101.950;  527.000;  405.000
896.536;  -84.925; -465.000; -468.000
896.779;  -65.425; -149.000;   -1.000
897.023; -151.200; -751.000; -714.000
897.266;  -26.250;  325.000;  269.000
897.509; -180.075; -900.000; -901.000
897.752;  -41.750;  149.000;  171.000
897.996; -189.325; -972.000; -864.000
898.239;  -26.275;  168.000;  102.000
898.482; -132.200; -431.000; -453.000
898.725;  -32.300;  101.000;   53.000
898.968; -157.975; -609.000; -744.000
899.211; -108.125; -513.000; -361.000
899.454; -112.750; -633.000; -539.000
899.697;  -55.850;   90.000;  -43.000
899.940; -164.125; -761.000; -757.000
900.182; -102.550; -335.000; -405.000
900.425;  -87.675; -150.000; -298.000
900.668;  -29.825;  491.000;  350.000
900.911; -107.800; -292.000; -345.000
901.154;  -50.475;  141.000;   -3.000
901.396; -146.375; -407.000; -412.000
901.639; -138.475; -430.000; -496.000
901.882; -175.375; -790.000; -809.000
902.124;  -93.225;  -29.000; -143.000
902.367; -118.950; -315.000; -361.000
902.609; -128.900; -476.000; -453.000
902.852;  -79.900; -108.000; -260.000
903.094; -120.275; -458.000; -337.000
903.337;  -71.025;  -26.000;   53.000
903.579; -104.025; -228.000; -441.000
903.821; -145.750; -597.000; -744.000
904.064;  -66.100;   85.000;  127.000
904.306;  -95.050; -126.000; -166.000
904.548; -107.900; -152.000; -366.000
904.790; -104.250; -195.000; -340.000
905.033; -131.050; -625.000; -577.000
905.275; -122.600; -513.000; -524.000
905.517;   36.375;  468.000;  256.000
905.759;  -63.225; -667.000; -761.000
906.001;  -96.175; -322.000; -369.000
906.243;  -70.650; -162.000; -224.000
906.485;  121.875; -265.000; -207.000
906.727;  127.350; -499.000; -542.000
906.969;  -26.850;  -30.000; -135.000
907.211;  128.600; -316.000; -382.000
907.453;  275.625; -188.000; -237.000
907.695;   18.075; -158.000; -385.000
907.936;   24.100;  818.000;  706.000
908.178;  -56.925;   92.000; -135.000
908.420;  -68.900; -111.000; -162.000
908.662; -124.675; -633.000; -682.000
908.903;  -89.500; -208.000; -123.000
909.145;  -67.425; -240.000; -305.000
909.386;    5.350;  315.000;  280.000
909.628;   26.475;  363.000;  397.000
909.870;    5.175;   29.000;  264.000
910.111; -111.650; -809.000; -949.000
910.353;    1.425; -123.000; -161.000
910.594;   -2.700; -574.000; -606.000
910.835;   71.850; -265.000; -326.000
911.077;  134.525; -503.000; -604.000
911.318;  276.600; -505.000; -471.000
911.559;  452.575; -577.000; -880.000
911.801; 1273.875; -284.000; -280.000
912.042; 9955.725;  -50.000; -159.000
912.283;26602.275;  404.000;  371.000
912.524; 4207.425; -396.000; -457.000
912.765;  481.150; -193.000;   79.000
913.006;  253.975; -307.000; -338.000
913.247;   60.225; -270.000; -290.000
913.488;    0.900;  -43.000;   30.000
913.729;  -77.950; -373.000; -373.000
913.970;  -67.775;  -96.000; -292.000
914.211;  -86.300; -160.000; -198.000
914.452;  -65.675; -118.000;  -11.000
914.693;   17.050;  510.000;  592.000
914.934;    8.575;  510.000;  440.000
915.175;  -64.375;   53.000;  -95.000
915.415;  -93.400; -137.000;   27.000
915.656;  -59.375;  -28.000;  192.000
915.897; -100.975; -252.000;  -82.000
916.137;  -66.025;   74.000;   -9.000
916.378; -132.050; -573.000; -517.000
916.619; -104.325; -159.000;  -63.000
916.859;  -26.475;  303.000;  330.000
917.100;  130.675; 1655.000; 1070.000
917.340;   34.475;  930.000;  728.000
917.581;   49.075;  965.000;  789.000
917.821;  -17.300; -171.000;  143.000
918.061;   14.100; -199.000;  -72.000
918.302;  -51.950; -152.000; -211.000
918.542;  -17.925;  -22.000;    3.000
918.782;   31.650;  369.000;  377.000
919.023;  146.550;  360.000;  427.000
919.263; 1708.050; 8131.000;  202.000
919.503; 1141.025; -137.000;  -54.000
919.743;  641.575;  390.000;  266.000
919.983;  285.650; -134.000;  -26.000
920.223;   75.175;  135.000;   14.000
920.463;  148.775;  631.000;  554.000
920.703;  121.400;   84.000;   39.000
920.943;  178.025; -110.000;   90.000
921.183;  206.050; -414.000; -405.000
921.423;  474.800;  307.000;  546.000
921.663;  686.175; -174.000; -257.000
921.903; 1486.375;  237.000;  173.000
922.143; 8263.050;  372.000;  389.000
922.383;32305.100;  158.000;  115.000
922.622;11342.500; -120.000;  -15.000
922.862; 1190.525;  796.000;  785.000
923.102;  474.075;  -51.000;   33.000
923.341;  185.900;   59.000;   74.000
923.581;   82.325;  450.000;  360.000
923.821;   14.650;  301.000;  398.000
924.060;    9.100;  351.000;  193.000
924.300;  -47.675;  -16.000; -128.000
924.539;  -19.775;  584.000;  473.000
924.779;    2.050;  812.000;  597.000
925.018;  -51.925;  247.000;  353.000
925.257;    9.075;  595.000;  666.000
925.497;  -25.150;  447.000;  412.000
925.736;  -70.325;  -35.000;  102.000
925.975;   -1.000;  687.000;  669.000
926.214;   34.025;  907.000;  850.000
926.454;   14.825;  706.000;  757.000
926.693;  -25.675;  419.000;  543.000
926.932;   41.850; 1021.000;  825.000
927.171;   78.850; 1107.000; 1044.000
927.410;   58.550; 1144.000;  967.000
927.649;   24.350;  924.000;  742.000
927.888;  -19.275;  590.000;  564.000
928.127;    3.000;  680.000;  678.000
928.366;   25.625;  842.000;  826.000
928.605;   54.175;  831.000;  737.000
928.844;  234.950; 1451.000; 1393.000
929.083;  612.800;  770.000;  613.000
929.321;  338.000; 1335.000; 1359.000
929.560;   81.375; 1158.000; 1122.000
929.799;  -28.225;  574.000;  475.000
930.038;  101.675; 1025.000; 1394.000
930.276;  -63.400;  334.000;  397.000
930.515;    1.875;  827.000;  681.000
930.753;  -19.100;  614.000;  589.000
930.992;   -9.125;  664.000;  717.000
931.230;    0.225;  847.000;  847.000
931.469;  170.350; 2162.000;  892.000
931.707;   72.250;  840.000;  751.000
931.946;   69.650; 1278.000; 1344.000
932.184;   54.325; 1437.000; 1175.000
932.423;   52.350; 1265.000;  963.000
932.661;   81.675; 1296.000; 1428.000
932.899;   32.725;  987.000;  821.000
933.137;   17.325;  754.000;  564.000
933.376;  156.275; 1664.000; 1335.000
933.614;  168.175; 1759.000; 1196.000
933.852;   51.325; 1357.000; 1171.000
934.090;  124.500; 1722.000; 1747.000
934.328;  110.350; 1252.000; 1457.000
934.566;   98.075; 1431.000; 1110.000
934.804;  135.750; 1263.000; 1309.000
935.042;  403.875; 1861.000; 1850.000
935.280; 1637.600; 2088.000; 2063.000
935.518; 1576.925; 2113.000; 2007.000
935.756;  361.925; 2481.000; 2316.000
935.994;  170.525; 1808.000; 1751.000
936.231;  340.900; 2890.000; 2950.000
936.469;  180.550; 2367.000; 2378.000
936.707;  174.275; 2220.000; 2167.000
936.945;  236.375; 2825.000; 2882.000
937.182;  216.750; 2679.000; 2741.000
937.420;  302.625; 3602.000; 3031.000
937.657;  427.625; 3365.000; 3478.000
937.895;  355.325; 3331.000; 3488.000
938.133;  327.825; 3540.000; 3528.000
938.370;  329.125; 3896.000; 4191.000
938.607;  411.025; 4488.000; 4205.000
938.845;  536.900; 5587.000; 5549.000
939.082;  495.625; 5387.000; 5177.000
939.320;  554.475; 5799.000; 5728.000
939.557;  640.350; 6549.000; 6491.000
939.794;  706.200; 7285.000; 7097.000
940.031;  919.475; 8421.000; 8368.000
940.269; 1116.675; 9552.000; 9107.000
940.506; 1122.050;10901.000;10507.000

