
Integration time [ms]: 100.000
Averaging Nr. [scans]: 40
Smoothing Nr. [pixels]: 0
Data measured with spectrometer [name]: 2101013U2
Wave   ;Sample   ;Dark     ;Reference
[nm]   ;[counts] ;[counts] ;[counts] 

394.013;   38.934; -450.257; -315.536
394.305;  198.832; -461.258; -419.536
394.596; 1101.853; -676.269; -527.514
394.887; 2782.195; -796.268; -654.518
395.178; 1064.801;  145.736;   11.476
395.470;   80.462; -210.263; -356.526
395.761;  168.410;  305.734;  394.479
396.052;  233.627; -545.284; -306.489
396.343;  246.673; -557.276; -454.503
396.634;  105.466; -200.279; -290.497
396.926;   95.517; -618.268; -565.517
397.217;  108.727;   11.725;  -17.504
397.508;   32.593; -366.273; -154.507
397.799;   36.966; -555.279; -571.497
398.090;   -8.815; -973.280; -902.495
398.381;  111.952;   11.708;  -11.473
398.672;  -12.622; -585.292; -742.473
398.963;   38.297; -348.279; -373.498
399.254;  104.762;   54.709; -209.475
399.545;  -12.468;-1017.266; -883.520
399.836;   53.212; -407.277; -343.501
400.127;   66.703; -205.295; -209.468
400.418;   47.688; -423.274; -392.506
400.709;   52.048; -359.281; -333.493
401.000;   50.541; -268.291; -309.476
401.290;  110.664;  225.698;  115.545
401.581;   76.510; -166.286; -228.485
401.872;    9.750; -542.298; -486.462
402.163;   50.446; -313.296; -252.467
402.454;   85.913; -123.291; -163.475
402.744;   65.962; -844.297; -813.465
403.035;  422.468; -226.293;  -86.471
403.326;  532.181; -366.292; -384.474
403.617;  373.194;  204.701;  165.539
403.907;  250.083; -593.283; -679.490
404.198; 2440.068; -545.307; -599.446
404.489; 6385.463; -618.283; -588.491
404.779; 2115.693; -618.302; -660.456
405.070;  224.196;  -67.304; -174.451
405.360;  345.645; -259.293; -238.472
405.651;  367.004;  125.699;   98.542
405.942;  193.280;  209.714;  127.516
406.232;  248.045; -432.285; -413.487
406.523;  459.313;  641.706;  758.530
406.813;   85.457; -579.286; -644.484
407.104;  318.176;  261.708;  144.527
407.394;  140.571; -604.299; -591.462
407.685;  151.044;  336.715;  222.513
407.975;   49.612; -400.283; -382.490
408.265;  110.552; -134.289; -190.478
408.556;   60.560; -472.291; -459.475
408.846;  187.289;  474.706;  429.530
409.137;   77.961;   -1.288; -216.480
409.427;   54.770; -193.285; -271.487
409.717;   30.571; -776.273; -692.508
410.007;  158.413;    4.715; -170.486
410.298;   80.331; -360.295; -342.469
410.588;   72.192; -495.285; -510.486
410.878;   28.647; -792.287; -873.482
411.168;  110.927; -481.298; -478.463
411.459;  109.106; -295.283; -242.489
411.749;   61.833; -609.292; -507.474
412.039;   57.059; -755.289; -386.480
412.329;  189.804;   40.722;  132.501
412.619;  192.058;  -62.286; -148.485
412.909;  378.480;  639.711;  594.521
413.199;  310.711; -130.280; -251.495
413.490;  401.871;  521.710;  352.523
413.780;  142.090;-1013.279; -913.496
414.070;  328.224;  -46.276;  235.497
414.360;  362.151; -729.278; -666.498
414.650;  435.543; -726.288; -688.482
414.940;  526.064; -538.280; -441.496
415.230;  955.465;   50.712;   74.519
415.520; 6169.927;  155.730;   66.486
415.809;24184.847; -305.281; -125.493
416.099;18898.814; -388.277; -229.501
416.389; 5308.285;  435.726;  236.494
416.679; 3165.591;   91.738;   85.473
416.969;  530.827; -527.287; -503.483
417.259;  592.942;  341.721;  171.503
417.549;  707.521;  522.718;  318.508
417.838; 1686.294; -205.268; -147.518
418.128; 5574.251;  650.710;  492.522
418.418; 4681.153; -491.272; -579.509
418.708; 3191.810;    9.726;  -48.506
418.997;11888.206; -474.275; -480.505
419.287;12477.692; -733.273; -790.507
419.577;11807.031; -160.283; -123.489
419.866;38817.637; -588.277; -498.501
420.156;39721.748; -242.270;  -55.513
420.446; 7241.133; -112.263;  -26.526
420.735;  842.742; -376.271; -446.512
421.025;  838.250; 1830.722;  315.502
421.314;  657.640; -203.271; -226.512
421.604; 1337.062;   89.732;  233.484
421.893;  764.637; -705.271; -602.511
422.183;  237.458; -487.263; -461.526
422.472;  385.963;  -36.271; -107.511
422.762;  449.737; -416.266; -379.521
423.051;  240.999; -916.276; -916.503
423.341;  319.569; -491.273; -439.507
423.630;  391.668; -121.265;   15.477
423.919;  391.706;   58.725;   49.495
424.209;  373.439;  -31.263;   56.473
424.498;  501.767;   68.732;  161.483
424.787; 1100.948; -535.267; -601.518
425.077; 3359.317;   34.735;   29.478
425.366; 4694.519; -734.262; -744.528
425.655;10136.170;  639.727;  259.493
425.945;22323.074; -313.247; -268.554
426.234;12556.192;  117.741;  300.467
426.523; 5118.397;  -86.259; -350.534
426.812; 7087.708;  107.734;  159.480
427.101;10387.484; -127.269; -323.515
427.390;13081.627;  -55.270;  -86.514
427.680; 2908.617; -624.257; -411.538
427.969;  486.978; -330.255; -301.540
428.258;  297.459; -385.257; -477.536
428.547;  524.482;  449.728;  397.490
428.836; 1204.644; -421.253; -398.543
429.125; 1707.799; -199.259;  -72.534
429.414;  785.742; -330.251; -294.548
429.703; 3185.442; -231.251; -213.548
429.992; 9520.871; -938.250; -828.549
430.281; 6281.801; -397.264; -331.524
430.570;  575.007;  -21.252;   32.454
430.859;  538.272;  279.741;  352.466
431.148;  422.995;  636.752;  631.446
431.437;  275.407;  391.748;  367.454
431.725;  141.735; -544.257; -481.536
432.014;  129.377; -845.253; -756.545
432.303;  370.846; -149.239; -105.569
432.592;  600.158; -460.263; -178.525
432.881; 1048.921; -601.248; -437.554
433.169; 6358.379; -343.255;  -61.540
433.458;12866.805;  445.765;  540.424
433.747; 5426.250; -397.261; -289.529
434.036;  873.647; -275.242; -280.564
434.324; 2097.958; -395.249; -379.551
434.613; 3713.440;   40.757;  159.437
434.902; 1239.711;  333.760;  439.433
435.190;  510.745;   75.761;  295.431
435.479;  308.222;  -52.245;   83.441
435.767;   93.780; -411.244; -427.561
436.056;  200.767; -340.242; -294.563
436.345;  368.238; -372.240; -223.568
436.633;  391.553;   60.750;  383.450
436.922;  237.265;  208.760;  414.432
437.210;  534.020; -194.236;    1.426
437.499; 1705.578; -583.235; -432.576
437.787; 1924.544; -339.236;  -10.574
438.075;  492.050;   56.761;  162.430
438.364;  690.853;  -44.238;  250.429
438.652;  402.433; -286.226; -138.592
438.941;  138.372;    3.770;  269.415
439.229;   -9.320; -665.252; -466.545
439.517;   44.086; -160.234;  -85.577
439.806;  -18.426; -501.225; -290.595
440.094;  168.419;  377.766;  650.421
440.382;  156.698; -653.233; -302.580
440.670;  201.927; -361.235; -285.576
440.959;   21.616; -347.223; -170.599
441.247;   73.658; -151.229; -109.587
441.535;   87.885; -266.235;   31.423
441.823;   43.266; -497.234; -305.578
442.111;  176.937;  173.771;  327.412
442.400;  493.221; -628.245; -335.559
442.688; 1265.318; -111.234; -620.579
442.976;  907.329; -786.213; -450.617
443.264;   91.605; -324.224; -364.597
443.552;  100.734; -258.226;   51.408
443.840;  149.333;  602.765;  876.423
444.128;  112.872;  265.767;  269.420
444.416;    0.340; -694.228; -312.588
444.704;   29.346; -465.219;  -92.605
444.992;   59.062;   -0.226;  240.407
445.280;   46.597; -517.230;  -94.585
445.568;   31.233; -694.212; -396.618
445.856;  327.305; -174.221;  357.398
446.143;  683.567;  -54.220;   -7.604
446.431;  586.494;  -25.228;  625.411
446.719;  239.140;  489.783;  675.391
447.007;  196.192;  481.769;  705.416
447.295;  165.438;  597.777;  871.402
447.583;   72.731; -464.229;  -34.587
447.870;  138.802; -434.221; -202.601
448.158;  397.596; -104.230;  129.415
448.446;  277.443; -800.219; -338.604
448.733;  167.882;   13.776;  269.403
449.021;  246.982;   60.788;  341.382
449.309;  188.172; -296.210;  208.379
449.596;  209.936;  128.783;   59.392
449.884;  161.870; -571.222; -325.600
450.172;  154.499; -756.227; -406.590
450.459;  453.337;  645.786;  780.387
450.747; 2468.010; -411.218; -147.608
451.034; 7848.095;  493.772;  889.411
451.322; 6507.690; -413.214; -170.614
451.609;  579.283;  292.777;  508.403
451.897;  594.286; -550.203; -183.634
452.184; 1839.313; -622.223; -400.598
452.472; 1745.144;   97.792;  269.375
452.759;  358.944;  512.781;  864.395
453.047;  108.580; -407.212; -125.617
453.334;   71.777; -732.219; -216.606
453.621;   82.718; -438.214; -161.615
453.909;  114.728;   13.796;  384.368
454.196;  105.623; -299.199; -123.641
454.483;  217.224;  317.798;  540.364
454.771;  123.697; -215.208;  196.374
455.058;   50.400; -316.207;  102.374
455.345;  110.528;   71.807;  344.347
455.632;   93.703; -128.207;  235.373
455.919;   43.271;  -82.196;  182.354
456.207;  -42.747; -774.198; -450.642
456.494;  -16.739; -475.200;  -66.639
456.781;   17.319; -399.202; -198.635
457.068;   64.085; -253.206;  -29.628
457.355;    6.811; -698.206; -401.629
457.642;   -9.758; -552.205; -290.630
457.929;   -8.905; -778.194; -417.651
458.216;   59.905; -575.212; -354.617
458.503;  259.574; -173.193;  -19.652
458.790;  238.945; -864.208; -630.625
459.077;  273.599;  -77.202;  110.364
459.364;  809.662; -350.195; -210.649
459.651; 1732.383;  -46.206;  220.372
459.938;  798.085; -864.209; -665.623
460.225;  136.577;  132.799;  276.363
460.512;  -63.357; -836.197; -688.645
460.799;  102.109;  -32.218;  320.392
461.086;   58.390; -370.200; -251.640
461.372;   39.678; -509.198; -279.642
461.659;  101.497; -165.196;  108.354
461.946;   57.723; -445.193;  -54.651
462.233;  227.513;  842.800;  888.361
462.519;  364.085; -814.201; -464.639
462.806; 1018.368; -768.197; -497.645
463.093;  901.844; -445.191;  -66.656
463.380;  -27.390; -920.186; -824.664
463.666;   39.595; -259.197;  -18.646
463.953;  100.882; -406.195; -243.648
464.239;  213.057; -173.195;  -77.648
464.526;  385.043;  413.806;  743.350
464.813;  320.880; -565.190; -304.658
465.099;  347.774;  606.807;  607.348
465.386;  324.078;  903.807;  921.348
465.672;   17.319; -694.197; -522.645
465.959;   35.448; -598.188; -520.662
466.245;   -0.497; -468.193; -359.652
466.532;   91.330; -109.195;   63.352
466.818;   57.035; -357.186; -216.664
467.104;    7.625; -488.182; -415.672
467.391;  -22.768; -628.189; -459.658
467.677;   54.538; -289.186;    9.335
467.964;  -14.361; -682.189; -471.660
468.250;   46.066; -331.186; -160.665
468.536;   73.033;   90.811;  180.341
468.822;  -17.222; -821.184; -574.668
469.109;  138.356;  351.827;  471.311
469.395;  203.388;  729.808;  787.346
469.681;  186.336;   46.811;  156.341
469.967; 1285.591; -699.188; -382.660
470.254; 2750.074; -494.188; -306.662
470.540; 1784.921; -601.196; -476.646
470.826;  253.236; -488.181; -397.675
471.112;  321.906;  288.816;  113.331
471.398;   76.736; -253.183;  -58.670
471.684;   51.289; -626.177; -447.680
471.970;    3.265; -918.180; -981.675
472.256;   35.862; -521.192; -441.654
472.542;   15.217; -499.171; -434.691
472.828;   -1.279; -743.182; -607.672
473.114;   29.011; -380.166; -283.700
473.400;   17.206; -504.175; -293.684
473.686;   31.642; -452.166; -400.701
473.972;   60.246; -230.174; -131.687
474.258;  -43.794; -925.173; -843.689
474.544;  204.406; -183.178;   -2.679
474.830;  319.733;  -65.175;   45.316
475.116;  516.657; -123.190; -196.658
475.401;  685.992; -558.180; -467.676
475.687;  211.766; -725.180; -718.676
475.973;  -11.846; -673.181; -770.673
476.259;  240.510;  736.825;  764.315
476.544;  346.848; -539.176; -437.682
476.830;  848.263; -398.172; -322.690
477.116;  748.321; -430.177; -336.682
477.401;  150.592;  346.820;  358.324
477.687;  -25.794; -289.175; -405.684
477.973;   37.007;   21.819;   28.326
478.258;   -9.713; -448.163; -348.706
478.544;   58.996;   21.815;   61.334
478.829;  -53.978; -818.171; -738.692
479.115;  -38.412; -749.172; -651.690
479.401;  -12.159; -444.174; -449.686
479.686;   48.666; -253.180;  -74.676
479.972;  -35.989; -886.178; -776.680
480.257;   35.612; -258.166;  -65.700
480.542;  -12.374; -614.170; -469.693
480.828;  239.004; 1288.824; 1392.317
481.113;  -31.948; -464.176; -426.683
481.399;  -13.589; -236.161; -202.711
481.684;  -63.864; -620.166; -462.700
481.969;   16.750; -158.159;  -73.713
482.255;  -15.113; -439.169; -285.695
482.540;   14.337; -569.178; -441.680
482.825;   11.305; -395.187; -404.663
483.110;   95.465;  -85.169; -105.696
483.396;  186.196; -840.157; -652.718
483.681;  518.421;  543.826;  730.313
483.966;  163.919; -696.160; -700.712
484.251;   -0.180; -404.174; -310.687
484.536;   -8.803; -356.165; -378.703
484.822;   10.123; -205.173; -218.687
485.107;  -30.915; -599.152; -502.726
485.392;  123.303;  662.836;  541.296
485.677;   60.725;  354.832;  163.302
485.962;  122.769;  160.843;  270.283
486.247;   84.345;  -14.162;   -8.707
486.532;   44.163; -178.166; -325.701
486.817;  143.756;  381.839;  431.291
487.102;  131.593; -453.154; -514.722
487.387;  692.148; -637.156; -652.718
487.672; 1209.333; -154.164;  -38.705
487.957;  760.688; -394.160; -286.711
488.241;  229.101; -290.150; -314.729
488.526;  764.561; -280.152; -148.726
488.811; 1260.964; -881.177; -818.680
489.096;  926.945; -666.154; -702.723
489.381;  530.557;    3.847;  162.275
489.666;  387.661; -428.161; -510.710
489.950;  186.073;  558.846;  627.277
490.235;  -35.354; -480.151; -458.728
490.520;  -32.665; -756.161; -723.710
490.804;  -51.125; -827.156; -736.719
491.089;   -3.558; -469.149; -299.732
491.374;   39.782; -132.164;  -75.704
491.658;  -15.171; -817.147; -717.735
491.943;  140.765; -657.152; -609.727
492.227;  252.838; -178.155;  -38.721
492.512;   31.543; -294.157; -341.717
492.797;  -65.964; -713.149; -716.731
493.081;  -56.219; -588.147; -598.735
493.366;  -36.363; -751.161; -635.711
493.650;  204.360;  831.859;  917.254
493.935;   35.428; -648.147; -447.734
494.219;  -34.253; -778.142; -687.743
494.503;  -41.444; -585.150; -487.730
494.788;   50.835;   46.842;   74.285
495.072;  120.778;  184.850;  434.271
495.356;  188.670; -463.148; -343.733
495.641;  467.788; -812.146; -736.736
495.925;  450.030; -976.156; -903.719
496.209;   37.842; -599.149; -451.732
496.494;  -52.077; -763.142; -544.744
496.778;   -2.657; -364.154; -360.722
497.062;  -54.545; -819.156; -627.719
497.346;  -28.960; -869.160; -640.711
497.631;  136.924;  580.852;  560.266
497.915;   96.124;  -64.145;  175.261
498.199;   33.221; -341.157; -277.718
498.483;   25.659; -562.152; -508.725
498.767;  175.429;  301.850;  300.271
499.051;  199.114; -126.149; -100.732
499.335;   14.712; -693.149; -739.731
499.619;  -22.439; -381.129; -423.767
499.903;   -4.213; -272.155;  -65.721
500.187;   36.725; -588.153; -316.724
500.471;    5.065; -796.152; -595.727
500.755;  106.835;   62.839;  -96.710
501.039;   16.588; -270.155; -357.721
501.323;   97.687;  -21.141;  264.254
501.607;   12.913; -447.163; -503.706
501.891;    3.598; -607.156; -512.718
502.174;  -44.265; -726.144; -585.741
502.458;   62.569;   89.849;  370.273
502.742;   40.335; -180.138; -191.751
503.026;  112.928; -412.147; -254.734
503.310;  171.624; -437.159; -375.713
503.593;  126.154; -464.147; -325.735
503.877;  107.101; -232.133; -156.760
504.161;  172.802;    2.847;  -50.724
504.444;  132.662; -841.158; -710.716
504.728;  488.156; -487.164; -522.704
505.012;  733.526; -257.150;  -76.729
505.295;  565.186; -417.161; -212.711
505.579;  549.455; -256.156; -496.719
505.862;  770.595; -555.145; -333.738
506.146;  779.226; -681.159; -758.714
506.429;  425.577;  568.841;  461.286
506.713;   63.273; -732.151; -667.728
506.996;  318.817;   90.846;  295.278
507.280;  347.326; -633.165; -474.703
507.563;  257.686; -469.155; -261.721
507.847;   95.401; -423.153; -112.724
508.130;   90.387; -665.161; -456.711
508.413;  129.358; -758.167; -577.700
508.697;  269.208; -151.167;   12.300
508.980;  169.627; -422.153; -312.724
509.263;    2.632; -466.155; -450.720
509.547;   25.850; -124.150;   82.271
509.830;   52.814; -172.160;  140.289
510.113;   74.329;  128.844;  298.281
510.396;   38.258; -530.152; -300.725
510.680;  127.921; -818.145; -812.738
510.963;  565.697;  184.846;  180.277
511.246;  485.783; -493.150; -357.730
511.529;  267.751; -482.145;  -83.739
511.812;  393.497; -250.134;   10.241
512.095;  283.020; -740.151; -396.728
512.378;   68.783; -317.147; -245.736
512.661;   34.918; -703.137; -623.753
512.944;   13.774; -750.142; -637.744
513.227;   65.765; -170.137; -171.752
513.510;   11.785; -479.144; -671.741
513.793;   30.541; -485.140; -435.747
514.076;  124.057;  -43.127;  -39.771
514.359;  118.293; -294.149; -135.732
514.642;   98.377; -442.142; -567.744
514.925;  793.714;  581.860;  561.253
515.208; 1033.694; -498.134; -443.758
515.491;  702.933; -276.133; -182.761
515.773;  377.988; -410.143; -337.742
516.056; 2152.674;  249.864;  409.246
516.339; 2902.803; -754.136; -652.755
516.622; 1939.681; -518.150; -488.730
516.904; 1172.320;  882.857;  975.257
517.187;  558.214; -730.138; -523.752
517.470;  399.294; -568.143; -510.743
517.752;  442.156; -624.136; -470.756
518.035;  348.451; -708.139; -725.749
518.318;  378.829; -799.136; -744.755
518.600; 2528.686; -300.132; -325.762
518.883; 3510.926;  310.858;   88.256
519.165; 1677.907; -585.138; -426.751
519.448;  390.461;  -61.132;  -19.762
519.730;  184.315; -573.126; -415.773
520.013;  319.104;  588.867;  664.240
520.295;  786.374;  -94.134;  -15.759
520.578; 1730.224; -335.131; -305.764
520.860; 1934.886; -254.132;   56.238
521.143; 1048.208; -763.135; -584.756
521.425;  488.127; -251.125; -279.775
521.707;  713.682; -622.127; -380.771
521.990; 1827.183; -199.127;  167.229
522.272; 2119.093; -116.140;   -4.748
522.554;  929.989; -237.143; -157.742
522.836;  371.997;  -24.134;   99.241
523.119;  194.551; -496.148; -189.734
523.401;  160.006; -448.130; -314.766
523.683;   91.444; -865.137; -693.753
523.965;  284.237;  408.862;  260.248
524.247;  281.174;   54.878;  170.220
524.529;  208.324; -451.134; -367.759
524.812;  371.408;   -3.130;  191.234
525.094;  909.211; -773.138; -631.751
525.376; 1416.562; -143.124;   78.223
525.658;  870.801; -441.136; -339.754
525.940;   30.246; -805.131; -671.764
526.222;   39.129; -188.136;  -88.755
526.504;  100.118; -190.131;   32.237
526.786;  174.701; -960.133; -647.760
527.068;  277.942; -124.123;  -67.778
527.349;  122.322; -865.137; -774.754
527.631;  130.936; -137.132;   22.238
527.913;  151.707; -664.127; -450.771
528.195;  167.145; -761.125; -639.774
528.477;  255.244;  -93.134;  -30.758
528.759;  130.258; -648.130; -522.766
529.040;   62.116; -569.123; -293.778
529.322;   51.823; -235.125;  -10.774
529.604;  134.885;  -47.130;   93.233
529.886;  122.714; -546.126; -302.773
530.167;  111.126;  232.870;  192.235
530.449;   45.208;    1.853;   63.265
530.731;   29.548; -572.122; -459.779
531.012;   79.694; -513.120; -216.784
531.294;   82.283; -118.116;  -43.792
531.575;  153.502;  290.875;  538.225
531.857;   63.039; -548.135; -266.757
532.138;   93.385; -113.141;   40.254
532.420;  183.960;  294.865;  403.244
532.701;  204.654; -722.133; -751.760
532.983;  361.332;  232.867;  182.239
533.264;  128.987; -243.126;  175.228
533.546;  -31.121; -491.136; -508.755
533.827;   33.600;  173.867;   -1.759
534.109;   47.989; -352.135;  -80.757
534.390;   70.915; -725.132; -582.762
534.671;  265.810; -270.135;  -82.756
534.953;  131.844; -751.123; -611.779
535.234;   14.843; -426.117; -255.789
535.515;  -91.748; -891.119; -735.785
535.796;  -14.722; -431.128; -193.770
536.078; -121.864;-1050.124; -904.777
536.359;   11.044;  -22.123;    3.221
536.640;  -22.678; -480.125; -197.774
536.921;  161.440;  225.871;  143.232
537.202;  382.958;  -87.138;  -16.751
537.483;  494.023;  251.869;  377.236
537.764;  179.627;   17.870;   98.235
538.045;  -28.682; -543.134; -371.758
538.326;  -36.758; -596.129; -447.768
538.607;   36.258; -686.127; -476.771
538.888;  178.185;   98.879;    5.218
539.169;  195.679; -704.122; -535.781
539.450;  325.614;  236.871;   16.233
539.731;  224.714; -361.121; -182.783
540.012;  133.519;  199.880;  412.216
540.293;   88.506;   82.876;  158.224
540.574;    9.254; -895.113; -717.796
540.855;  458.237;  435.879;  377.218
541.136;  531.227;   47.878;  139.220
541.416;  291.083; -161.130; -220.766
541.697;  202.294; -274.131; -170.763
541.978; 1091.912; -270.135; -315.757
542.259; 1339.333; -211.127; -236.771
542.539;  675.527; -191.116; -186.790
542.820;  193.327;  461.875;  480.225
543.101;  138.948;  -52.145;  -77.738
543.381;   22.733; -638.127; -591.771
543.662;  276.055;  159.873; -254.771
543.942;  607.429; -751.127; -830.770
544.223; 1109.928;  193.878;  161.219
544.504;  715.811; -275.124; -182.777
544.784;  613.164; -592.126; -408.773
545.065; 1689.930;  104.884; -254.791
545.345; 2033.052;  227.881;   14.215
545.626; 1346.278;  -14.113; -108.796
545.906;  932.201;   77.869;   98.235
546.186;  372.369;   92.874;  -95.773
546.467;  203.539;   99.877;  -95.778
546.747;  338.351;  264.884;  327.210
547.027;  408.810;   91.876;  111.223
547.308;  336.728; -376.127; -530.770
547.588;  434.018;  299.871;  371.232
547.868;  203.952;  458.870;  588.235
548.149;  231.813;  609.885;  593.207
548.429;  130.856; -347.127; -299.771
548.709;  210.318; -645.120; -461.784
548.989;  483.137;   84.882;   88.213
549.269; 2232.984;   10.868;  139.239
549.550; 5015.718;  215.877;  117.222
549.830; 4513.096; -758.111; -556.799
550.110;  895.203; -468.110; -320.801
550.390;  874.398; -128.122;  -56.779
550.670; 1152.674; -868.114; -783.795
550.950;  853.787; -509.121; -471.782
551.230;  200.033;  549.879;  460.218
551.510;    2.311; -381.121; -326.782
551.790;   33.186; -173.109; -127.803
552.070;  280.338;  940.877; 1181.223
552.350;  415.931; -492.119; -377.786
552.630;  610.706;   -2.121;   77.219
552.909;  377.506;  181.884;   73.209
553.189;  249.341;  -49.132;   33.237
553.469;  197.481; -703.119; -514.786
553.749;  214.034; -469.127; -357.772
554.029;  150.872;   33.883;  -24.790
554.308;  149.192; -154.115;  -37.794
554.588;   60.652; -196.128; -204.770
554.868;   78.288; -366.121;  -47.782
555.147;  163.839; -114.115;  -46.793
555.427;  654.933; -260.116; -250.792
555.707; 4066.462; -284.115; -200.793
555.986; 4893.249; -719.111; -538.800
556.266; 2599.750;   23.884;   72.210
556.546;  135.536; -888.121; -675.782
556.825;  262.796; -657.114; -556.794
557.105; 1893.774; -125.128;   17.230
557.384; 2184.155;  122.884;  187.209
557.664;  850.058; -717.116; -508.792
557.943;  129.487; -557.121; -411.782
558.222;  177.665; -345.118; -344.788
558.502;  280.091; -116.115;  -76.793
558.781;  534.236;  194.885;  499.208
559.061;  421.965; -232.118; -227.788
559.340;  318.920;  302.883;  353.211
559.619;  743.575;   93.884;  148.210
559.899; 1082.821; -239.117; -266.789
560.178;  984.390; -778.115; -593.793
560.457; 3292.423; -623.117; -562.790
560.736; 4545.050; -472.111; -482.800
561.015; 3067.797; -500.128; -502.769
561.295;  399.606;  180.893;  215.193
561.574;  364.588;  119.885;  116.207
561.853;  503.915;  274.891;  303.197
562.132;  540.943;  -45.114;  182.206
562.411;  452.456;  396.879;  553.219
562.690;  149.736; -592.115; -458.792
562.969;  137.785;  472.888;  630.203
563.248;  539.929; 2966.878; 2487.219
563.527;  275.300; -290.111; -408.800
563.806;  399.881; -650.127; -521.771
564.085;  438.621; -297.105; -206.810
564.364;  255.175; -594.117; -405.790
564.643;  537.507; -276.121; -223.781
564.922; 1988.359;  221.890;  397.198
565.201; 1992.988; -640.109; -700.803
565.479;  868.660; -297.115; -219.792
565.758;  337.475; -810.128; -712.770
566.037;  490.364; -155.109; -100.803
566.316;  251.030; -286.116;  -28.791
566.595;   38.162;  -17.115;  -12.793
566.873;  101.052; -166.111;  -79.801
567.152;  -53.791; -490.113; -590.797
567.431;    6.976; -113.116;    6.210
567.709;   26.156; -344.107; -212.807
567.988;  271.046; -810.114; -769.794
568.266;  557.212; -160.115;  -68.793
568.545;  393.843; -644.100; -514.819
568.824;  626.734;  160.885;  356.208
569.102;  554.621; -351.114; -235.794
569.381;  261.333; -492.116; -407.792
569.659;  -55.569; -553.113; -553.796
569.938;   43.627; -743.122; -465.780
570.216;  104.992; -225.109; -225.804
570.494;  -11.151; -632.114; -572.795
570.773;   38.110;  202.879;  114.218
571.051;   15.966; -373.123; -357.778
571.330;   53.203; -221.113; -174.796
571.608;   42.761; -181.098; -173.823
571.886;  -72.006; -671.111; -581.799
572.164;  -53.212; -739.121; -621.782
572.443;  -42.750; -562.105; -512.811
572.721;  -37.777; -399.117; -289.790
572.999;  -26.633; -280.117; -168.788
573.277;   94.293;  379.894;  620.191
573.555;  303.096;   94.894;   37.190
573.834; 1412.966;  -86.117; -114.788
574.112; 1617.659;  880.893;  811.193
574.390;  502.726; -143.111;  -96.801
574.668;    6.236;  -91.112;  -61.797
574.946;   -1.654; -165.106; -187.810
575.224;   -2.112;   71.891;  -16.803
575.502;  -28.172; -200.116; -204.791
575.780;  -90.863; -767.112; -829.798
576.058;  211.725; 1589.889; 1004.200
576.336;  -19.170; -210.110; -129.801
576.614;  -55.888; -511.112; -340.798
576.891;   60.667; -711.115; -823.794
577.169;  512.875; -158.108; -285.805
577.447;  587.408;  169.893;  202.193
577.725;  289.391;  629.888;  854.201
578.003;    0.089;  -71.112; -371.798
578.280;   93.459; -208.104; -242.812
578.558;   69.541; -450.115; -422.793
578.836;  131.999; -210.114; -145.795
579.114;   38.310; -630.112; -670.797
579.391;   66.143;   -6.117;  -18.789
579.669;  -89.332; -595.114; -704.794
579.947;  189.530; -326.107; -127.806
580.224;  321.530; -692.107; -524.806
580.502;  344.759;  127.893;   76.193
580.779;   13.799;  -42.117;   75.210
581.057;  -64.358; -584.109; -470.804
581.334; -108.951; -726.102; -695.815
581.612;   38.172;   54.895;  511.190
581.889;  -28.138;  -83.101; -129.818
582.167;  -28.499; -298.099; -190.821
582.444; -106.643; -845.102; -814.817
582.721;  110.357;  657.899;  715.183
582.999;   51.099; -326.100; -167.821
583.276;  562.671; -812.123; -713.779
583.553;  742.302; -364.102; -294.816
583.831;  254.756; -607.104; -631.812
584.108;   59.648;  349.892;  174.195
584.385;    9.198; -122.102;  -98.815
584.662;  -74.448; -651.111; -828.801
584.940;   42.276;  204.889;  204.199
585.217;  -35.620;  -73.113; -303.796
585.494;   35.435;   71.890;  118.198
585.771;  208.118; -250.109; -354.804
586.048;  531.005; -196.113;  -76.796
586.325;  304.680; -721.110; -773.801
586.602;   86.434;  230.896;  213.188
586.879;  -21.830; -499.100; -580.820
587.156;   48.172; -156.105; -331.810
587.433;  -29.995; -701.102; -667.817
587.710;   70.762;  152.888;  234.202
587.987;  295.878; -264.105; -236.811
588.264;  819.714;  315.888;  387.202
588.541; 1390.987;  -61.104;   26.187
588.818; 2735.370;   72.892;  171.196
589.095; 2369.732; -163.104; -174.812
589.371;  399.166; -459.109; -414.804
589.648;    8.559; -581.107; -437.807
589.925;   21.625; -517.114; -621.795
590.202;    8.612; -741.112; -607.798
590.478;   94.654; -166.105;  -73.811
590.755;  273.101; -241.108; -132.806
591.032; 2588.157; -741.110; -699.802
591.308; 3538.801; -732.094; -790.831
591.585; 1849.731; -573.110; -560.802
591.862;  144.181;-1056.102; -950.817
592.138;   73.749; -475.108; -474.805
592.415;  147.835; -486.104; -495.813
592.691; 1529.833;  460.896;  518.188
592.968; 1936.138; -208.098; -123.824
593.244;  928.401; -695.116; -595.790
593.521;   66.606; -105.102;  -42.817
593.797;  -17.351; -810.122; -720.780
594.074;  333.901; -611.096; -588.826
594.350;  667.837;  828.905;  729.172
594.626;  304.527; -303.111; -283.801
594.903;  100.407; -643.101; -645.817
595.179;  192.989;  243.896;  418.187
595.455;   17.160; -136.107; -150.807
595.731;   -9.335;  -19.103;  -38.814
596.008;  -16.729; -464.111; -434.800
596.284;   31.398; -187.100; -242.820
596.560;   75.083; -501.093; -493.833
596.836;  196.849; -173.105;  -70.810
597.112;  356.199; -582.108; -437.805
597.388;  295.099;  -49.097;  -48.826
597.665;  115.883;  437.887;  530.203
597.941;  -59.088; -572.089; -658.839
598.217;   27.585; -323.110; -293.802
598.493;  268.344;   61.891; -204.804
598.769;  553.817; -175.100;  -50.819
599.045;  318.752; -490.108; -562.806
599.321;   53.622; -193.100; -261.820
599.597;  135.044; -355.109; -476.804
599.872;  502.587;  409.896;  429.187
600.148;  366.375;  -61.097; -172.826
600.424;  320.407;   91.893;  202.193
600.700;  228.434; -170.107; -280.807
600.976;  131.719; -442.097; -464.825
601.252;  247.215; -226.109; -272.803
601.527;  219.063; -833.104; -840.813
601.803;  155.955; -453.105; -404.812
602.079;  198.142; -124.100; -118.819
602.354;  582.868; -620.092; -531.835
602.630;  843.955; -140.113; -482.796
602.906; 2436.837; -910.101; -863.818
603.181; 6900.206; -627.119; -534.786
603.457; 5849.448;   98.903; -278.826
603.733;  877.814; -605.120; -626.783
604.008; 1002.871; -245.106; -164.810
604.284; 3165.233; -636.101; -580.817
604.559; 2735.841;   -3.112;  -42.799
604.835;  510.149; -163.105; -225.810
605.110;  435.277; -732.099; -892.821
605.385;  703.660;  224.907;  267.167
605.661;  685.615; -625.095; -729.829
605.936; 1198.028; -664.108; -737.806
606.211; 1008.572;  -17.103; -170.815
606.487;  195.420; -329.114; -376.794
606.762;   15.281; -791.119; -745.786
607.037;  -22.751; -501.105; -433.810
607.313;  -65.817; -589.096; -574.828
607.588;   -2.404; -375.106; -137.810
607.863;   40.612;  -28.101; -143.818
608.138;  187.859;  513.890;  516.198
608.413;   31.981; -576.099; -592.822
608.688;   50.899; -203.108; -267.805
608.964;  209.515; -509.106; -218.809
609.239;  249.372; -107.105; -212.810
609.514;  265.580;  281.895;  240.188
609.789;  670.159; -187.104; -716.812
610.064;  901.607; -435.096; -609.827
610.339;  945.341; -855.109; -799.804
610.614; 1207.922; -131.100; -315.820
610.889;  682.080;  215.895;  107.188
611.163;   27.856; -407.104; -591.812
611.438;   72.971;   81.886; -167.794
611.713;   10.733; -467.101; -499.817
611.988;   71.211; -144.101; -328.818
612.263;  -25.401; -771.102; -717.815
612.538;  236.205;  385.887;  251.204
612.812;  168.223; -832.100; -911.820
613.087;  141.211; -358.098; -338.823
613.362;  -54.490; -497.107; -557.807
613.637;   47.468;  261.897;  138.186
613.911;  -21.432; -256.092; -345.835
614.186;  134.683; -249.107; -292.807
614.460;  720.462; -842.081; -758.854
614.735;  820.010;  -55.087;  -17.843
615.010;  173.550;   43.912;  -82.841
615.284;  238.223;  360.892;  246.195
615.559;  369.392; -792.092; -955.835
615.833;  308.329;  -76.099;  -87.822
616.108;   -8.296; -225.090; -390.837
616.382;  153.412;  274.913;  402.156
616.656;  163.479; -241.090; -232.837
616.931;  532.754; -785.099; -700.822
617.205; 1084.813; -973.104; -979.813
617.480; 1016.650;  -91.125;    6.225
617.754;  172.473; -396.125; -128.774
618.028;   10.768; -369.129; -382.768
618.302;   44.672;   73.892;  -25.805
618.577;  -39.956; -371.103; -518.815
618.851;  -66.313; -399.109; -600.803
619.125;  -42.226; -335.134; -378.759
619.399;  -29.612; -244.104; -374.813
619.673;  -38.616; -330.115; -515.792
619.947;  -60.151; -333.114; -448.795
620.222;  -13.972; -198.110; -204.801
620.496;   -6.363;  -47.121;  -96.782
620.770;   22.954; -187.122;  -93.781
621.044;  213.172;  323.895;  346.190
621.318;  748.765; -653.120; -614.783
621.592;  671.863; -430.121; -409.783
621.866;  380.467; -476.112; -572.799
622.140;   25.253; -207.116; -356.791
622.413;   66.721;  138.889;  112.200
622.687;  -42.266; -746.101; -492.817
622.961;   26.997; -130.108; -143.805
623.235;  -76.378; -633.111; -661.800
623.509;  -90.021; -816.105; -848.811
623.783;   13.356;  -12.107;   48.193
624.056;  -17.209; -254.120; -280.783
624.330;   36.886;   63.888;   -3.797
624.604;   44.775; -271.116; -355.790
624.877;   78.383;  180.890;   26.198
625.151;   52.893; -249.114; -238.794
625.425;  -52.510; -150.103; -283.814
625.698;  -47.524; -367.119; -374.785
625.972; -104.165; -799.110; -765.802
626.245;   85.701;  685.884;  484.210
626.519;  -78.555; -426.120; -340.784
626.792;  -30.741; -192.107; -380.807
627.066;  -95.978; -485.122; -662.779
627.339; -100.669; -736.110; -663.802
627.613;   33.894;  351.880;  148.216
627.886;  -63.688;  187.891; -612.803
628.160;  -20.010;  312.880; -161.783
628.433;  -93.147; -695.125; -703.775
628.706;  -95.130; -517.120; -615.784
628.979;   31.160;  296.876;  117.223
629.253;  -92.695; -785.119; -833.786
629.526;  391.688; -334.126; -253.772
629.799;  348.817; -641.123; -479.778
630.072;  183.395; -497.128; -516.769
630.346;  -57.849;-1115.116;-1080.790
630.619;  467.085; -467.107; -545.808
630.892;  620.173;  709.889;  593.200
631.165;  335.188;  790.896;  679.187
631.438;  -90.236;-1092.112;-1055.798
631.711;   51.770;  453.877;  257.221
631.984;  -56.628; -523.117; -624.789
632.257;  -67.132; -636.117; -681.789
632.530;  -50.624; -412.119; -433.785
632.803;   40.866; -109.115;    7.207
633.076;  -66.912; -360.123; -422.777
633.349;   21.699;  173.872;  121.231
633.622;  -49.100; -187.119; -240.785
633.895; -117.109; -903.120; -823.783
634.167;  -73.360; -496.126; -525.773
634.440;   -2.492;  -19.116; -137.792
634.713;  -16.396;  -22.119; -120.786
634.986;   89.589;  593.871;  453.233
635.258;  -73.160; -507.115; -597.793
635.531;  113.564;  742.882; -343.788
635.804;  -39.180; -303.117; -318.789
636.077;  -95.371; -830.116; -852.791
636.349;  -17.987; -586.115; -474.793
636.622;  408.487; 1695.874; 1392.228
636.894;  251.821; -474.120; -909.784
637.167;  173.281; -836.127; -789.771
637.439;   29.602; -278.128; -213.770
637.712;  -41.336; -312.126; -293.772
637.984;  -94.870; -635.116; -707.791
638.257;  389.089;  515.877;  488.222
638.529;  560.829; -881.125; -924.776
638.802;  255.670; -508.128; -449.769
639.074; -120.747; -927.122; -952.781
639.346; -134.810; -942.135; -930.757
639.619;  -11.525;  -79.142; -319.744
639.891;   -2.078;  -83.122; -168.779
640.163;  -93.601; -689.122; -756.780
640.435;   38.576;  273.878;  103.220
640.708;    0.727;  -72.122; -132.780
640.980;  -31.071; -366.122; -362.781
641.252;  204.806;  -25.121;  -71.781
641.524; 1820.958;  580.879;  573.219
641.796; 1812.310;-1094.121; -907.782
642.068;  325.962; -191.121; -300.782
642.340;  -68.937; -486.121; -566.783
642.613;   53.965;  294.880;  323.217
642.885; -111.383; -787.120; -878.783
643.157;  -54.856; -810.120; -658.784
643.428;   44.371;  170.880;  218.216
643.700;  -68.278; -498.120; -425.784
643.972;  -46.351;  -16.119; -133.785
644.244;  -88.174; -474.119; -559.785
644.516;  -55.297; -250.119; -114.786
644.788;   64.580;  662.881;  548.214
645.060;  -32.893;  -12.119; -124.786
645.332; -101.767; -525.118; -535.787
645.603;   29.785;  479.882;  342.213
645.875;  -67.738; -334.118; -369.787
646.147;  174.714; 1487.882; 1242.212
646.418;  -56.534; -931.117; -918.788
646.690;  139.568; -714.117; -715.789
646.962;   52.469; -413.117; -451.789
647.233;    2.496;   15.883;   11.211
647.505; -110.777; -595.117; -475.790
647.776;   21.500;  328.884;  229.210
648.048;    3.602; -248.116; -418.790
648.320;  -67.121; -752.116; -679.791
648.591; -159.945;-1055.116; -958.791
648.862; -108.318; -505.116; -577.792
649.134;   21.834;  115.885;  198.208
649.405;  -48.414; -661.115; -618.792
649.677;  -33.087; -475.115; -598.793
649.948;  -12.260; -181.115; -296.793
650.219;   -8.584;  -37.115; -147.793
650.491;  -95.282; -431.114; -520.794
650.762; -116.955; -705.114; -731.794
651.033;  -93.178; -437.114; -424.795
651.304; -102.851; -743.114; -728.795
651.576;  -80.349; -680.114; -645.795
651.847;  -19.273; -250.113; -140.796
652.118;  -28.421;  -32.113; -189.796
652.389; -108.294; -639.113; -722.796
652.660;  -42.442; -147.113;  -89.797
652.931; -146.815; -897.112; -871.797
653.202;  -92.713; -382.112; -541.798
653.473;  -54.312; -633.112; -533.798
653.744;  158.340; -595.112; -590.798
654.015;  147.242; -356.112; -303.799
654.286;  -68.681; -642.111; -663.799
654.557;  -49.404; -586.111; -521.799
654.828; -169.752;-1114.111;-1088.800
655.099;  -81.751; -404.111; -291.800
655.370;  -98.949; -427.111; -543.801
655.641; -125.872; -656.110; -714.801
655.911; -111.320; -618.110; -638.801
656.182;   44.232;  437.890;  387.198
656.453;   91.634;  830.890;  746.198
656.724;  -72.790; -466.110; -426.802
656.994; -106.413; -553.109; -568.803
657.265; -113.811; -862.109; -873.803
657.536;  -80.959; -500.109; -377.804
657.806; -102.432; -561.109; -593.804
658.077; -154.230; -866.109; -950.804
658.347;  -79.379; -523.108; -598.805
658.618; -118.877; -646.108; -694.805
658.888;  -22.075;  -41.108;  112.195
659.159;  -86.023; -432.108; -548.806
659.429;  -23.996; -292.108; -349.806
659.700;   10.455; -435.107; -390.807
659.970;  -10.818; -370.107; -359.807
660.241;   21.034; -754.107; -921.807
660.511;  501.336; -147.107; -174.808
660.781;  105.063; -793.106; -748.808
661.052;  -44.385; -222.106; -381.808
661.322;  -24.534;   21.894;   -9.809
661.592;   25.868;  257.894;  148.191
661.862;  -82.555; -369.106; -382.810
662.133;  -92.228; -551.105; -502.810
662.403; -125.076; -770.105; -676.810
662.673;  -60.224; -256.105; -213.811
662.943; -105.823; -612.105; -551.811
663.213;  -18.646;  -85.105;  -81.811
663.483;  -87.944; -593.104; -568.812
663.753;  -41.617; -194.104; -152.812
664.023;  -12.540;   68.896;  -32.813
664.293;  -69.613; -319.104; -126.813
664.563; -127.262; -694.104; -648.813
664.833; -123.035; -743.103; -608.814
665.103; -118.358; -730.103; -793.814
665.373; -112.056; -766.103; -806.814
665.643;  -79.729; -863.103; -918.815
665.913;   45.923; -534.103; -714.815
666.182;  141.474; -685.102; -719.816
666.452;  289.151;  -22.102;  -89.816
666.722;  -21.072; -724.102; -784.816
666.992; -122.495; -948.102; -921.817
667.261; -109.468; -824.102; -808.817
667.531;  219.834;  134.899;   45.183
667.801;  534.085; -440.101; -412.818
668.070;  246.137;  714.899;  697.182
668.340; -113.636; -883.101; -840.819
668.609;   77.966;  588.900;  301.181
668.879;  -83.082; -490.100; -558.819
669.149;  -69.930; -539.100; -516.820
669.418; -110.954; -698.100; -726.820
669.688;  -15.902; -482.100; -666.820
669.957;   78.875; -423.099; -546.821
670.226;  -28.823; -268.099; -331.821
670.496; -103.271; -431.099; -635.822
670.765;  -69.594; -418.099; -501.822
671.034; -130.568; -872.099; -828.822
671.304;    2.209;   55.902; -111.823
671.573; -170.514;-1085.098; -957.823
671.842;   84.088; -380.098; -294.823
672.112;   13.565; -692.098; -586.824
672.381;   10.292; -239.098; -214.824
672.650; -145.757;-1005.097;-1021.825
672.919;  -84.655; -631.097; -507.825
673.188;  -99.028; -681.097; -878.825
673.457; -147.426;-1101.097;-1143.826
673.726;  -85.374; -579.096; -646.826
673.995;  -48.572; -533.096; -479.826
674.265;  -34.471; -263.096; -333.827
674.534;   21.956; -183.096; -235.827
674.802;    0.083; -618.096; -703.828
675.071; 1094.285; -886.095; -801.828
675.340; 4014.587; -464.095; -339.828
675.609; 1336.013;  103.905;   82.171
675.878;   62.415; -949.095; -893.829
676.147;   44.517;  -26.095;   -8.829
676.416;   82.744; -210.094; -294.830
676.685;  756.571; 1000.906; -622.830
676.953;  115.123; -603.094; -452.831
677.222;  -28.476; -193.094; -273.831
677.491;  -22.999;  -24.094; -127.831
677.759;   -2.597;   11.907;  172.168
678.028;  -26.620; -279.093; -222.832
678.297;    1.757;   71.907;  197.168
678.565; -139.216; -898.093; -944.833
678.834;  -66.315; -311.093; -268.833
679.102;  -71.088; -411.092; -391.834
679.371; -141.511; -898.092; -727.834
679.639; -144.934; -797.092; -786.834
679.908; -125.132; -794.092; -724.835
680.176; -172.155; -895.091; -941.835
680.445;  -63.104; -346.091; -352.835
680.713;  -23.502;  -58.091;  -23.836
680.982;  -86.725; -523.091; -525.836
681.250; -112.173; -578.091; -507.837
681.518; -103.096; -534.090; -751.837
681.787;  -16.169; -204.090; -167.837
682.055;  -65.343; -490.090; -422.838
682.323; -153.366; -993.090; -992.838
682.591;   52.236; -216.090; -538.838
682.859;   87.213;    9.911;  -35.839
683.128;   24.165;  232.911;  497.161
683.396; -175.358;-1102.089;-1122.840
683.664;  -27.832; -241.089;   21.160
683.932;    2.820;  144.911;  -76.840
684.200;  -68.303; -576.088; -320.841
684.468;  -37.301;  -73.088; -124.841
684.736;  -31.799; -214.088; -175.841
685.004; -117.022;-1024.088; -982.842
685.272;  -36.296; -880.088; -774.842
685.540;  -71.544; -499.087; -557.843
685.808;  -81.192; -651.087; -682.843
686.076; -115.815; -894.087; -969.843
686.343;  -63.413; -601.087; -815.844
686.611;   42.764; -195.087; -224.844
686.879;  493.290; -530.086; -553.844
687.147; 3368.817; -483.086; -480.845
687.414;  969.469;  -12.086; -169.845
687.682;   -7.154; -658.086; -757.846
687.950;  337.748;  259.915;  263.154
688.217;   21.975; -792.085; -760.846
688.485;    3.526; -632.085; -636.847
688.753;  557.253;  -11.085; -102.847
689.020;  178.005; -820.085; -851.847
689.288; -112.893; -853.084; -787.848
689.555;  -24.066; -195.084; -148.848
689.823;  -59.939; -241.084; -345.849
690.090;  -90.213; -546.084; -651.849
690.358; -155.711; -877.084; -897.849
690.625;   12.116;  120.917;   45.150
690.892;  -84.357; -403.083; -369.850
691.160;   -5.505;   72.917;  -35.850
691.427;    3.121;  141.917;  130.149
691.694; -130.777; -855.083; -929.851
691.962; -153.050;-1177.082;-1060.852
692.229;   16.877;  127.918;   56.148
692.496;   71.629;  130.918;  -49.852
692.763;    9.306; -164.082; -201.853
693.031;  -76.093; -739.082; -716.853
693.298;  -41.841; -509.081; -368.853
693.565;  320.786; -155.081; -163.854
693.832; 1294.188;   -5.081;   -9.854
694.099;  144.740; -643.081; -642.855
694.366;  -62.158; -882.081; -896.855
694.633;  -56.857; -920.080; -633.855
694.900;  778.095; 4367.920; -114.856
695.167;  435.822; -214.080; -380.856
695.434;  118.849; -646.080; -623.856
695.701;  189.051;  121.921;  -61.857
695.968;  469.603; -365.079; -361.857
696.234; 1040.854; -415.079; -646.858
696.501;10387.831; -776.079; -614.858
696.768; 5192.558; -554.079; -617.858
697.035;  316.435; -632.078; -667.859
697.302;   20.912; -448.078; -552.859
697.568;   21.614; -458.078; -497.859
697.835;  -51.085; -683.078; -624.860
698.102;  -32.908; -498.078; -407.860
698.368;   77.069;  384.923;  396.139
698.635;  -31.354;  -47.077; -424.861
698.901;  -17.402; -240.077; -348.861
699.168;   78.425; -534.077; -456.862
699.435;   84.401;  -72.077;  -13.862
699.701; -105.922; -868.076; -764.862
699.968;  -68.495;  144.924; -441.863
700.234;  -95.593; -783.076; -822.863
700.500;  -51.366; -448.076; -539.864
700.767;   -1.839;   -1.075;   26.136
701.033; -138.538;-1015.075; -963.864
701.299;  -59.436; -450.075; -483.865
701.566;  105.591;  950.925;  763.135
701.832;   29.093;  -31.075;  -76.865
702.098; -106.355;-1054.074;-1034.866
702.365;  -97.003;-1098.074;-1030.866
702.631;  -21.502;-1038.074;-1063.867
702.897; 1429.350; -765.074; -676.867
703.163; 2245.027;  348.926;  254.133
703.429;  156.529; -256.073; -273.868
703.695;  -34.869; -796.073; -792.868
703.961;   20.558; -214.073; -210.868
704.227;  -64.191; -630.073; -725.869
704.493;  136.761;  613.927;  510.131
704.759;  -29.937; -565.072; -540.870
705.025;   18.740; -203.072; -194.870
705.291;  -21.083; -666.072; -562.870
705.557;  198.168;  719.928;   34.129
705.823;   25.845; -742.072; -694.871
706.089;  131.597; -307.071; -326.871
706.355;  369.274; -315.071; -244.872
706.620; 5533.201; -776.071; -729.872
706.886; 7597.278; -309.071; -362.873
707.152;  702.129; -818.070; -973.873
707.418;  -42.294;-1153.070;-1186.873
707.683;   -3.617; -550.070; -530.874
707.949;  -50.340; -547.070; -578.874
708.215;    4.112; -129.070; -207.874
708.480;  -19.111; -520.069; -420.875
708.746;   92.415;   68.931;   28.125
709.011;  -63.333; -578.069; -612.876
709.277;  -79.856; -538.069; -543.876
709.542;  -57.229; -428.069; -387.876
709.808;    8.048;  -59.068;   89.123
710.073;  -84.375; -577.068; -695.877
710.339;  -25.099; -242.068; -228.877
710.604;   98.403; -780.068; -845.878
710.869;  332.005; -277.068; -366.878
711.135;  -77.943; -715.067; -628.879
711.400;  -79.566; -507.067; -608.879
711.665;  -69.189; -404.067; -479.879
711.931;  -89.688; -661.067; -677.880
712.196; -121.136; -876.067; -954.880
712.461;  106.541; -402.066; -490.880
712.726;  133.643; -727.066; -771.881
712.991;  -86.905; -647.066; -664.881
713.256;  -64.478; -350.066; -332.882
713.521;  -49.702; -417.065; -381.882
713.787;  -72.900; -454.065; -472.882
714.052;  -39.098; -214.065; -400.883
714.317;  -95.371;-1045.065; -981.883
714.581; 1025.706; -374.065; -268.883
714.846; 1334.633; -822.064; -888.884
715.111;  133.309;  261.936;  257.116
715.376;  -28.914;  -86.064; -223.885
715.641;  -19.612; -365.064; -367.885
715.906;  299.015;   15.936; -551.885
716.171;  137.942;  221.937;  209.114
716.436;   24.094;  -78.063; -104.886
716.700; -112.855; -818.063; -692.886
716.965; -129.753; -794.063; -807.887
717.230;  -65.551; -339.063; -392.887
717.494;  -22.599;  -40.062; -134.888
717.759;  -99.572; -784.062; -640.888
718.024;   12.880;  269.938;  250.112
718.288;   73.306;  685.938;  395.111
718.553; -149.117; -803.062; -977.889
718.817; -150.340; -883.061; -899.889
719.082;  -32.613; -115.061; -125.890
719.346; -143.011;-1000.061; -947.890
719.611;  -55.484; -300.061; -255.891
719.875;  -88.283; -568.060; -537.891
720.140;  -75.956; -453.060; -603.891
720.404;   35.996; -136.060; -249.892
720.668;  879.748; -475.060; -411.892
720.933;  321.925;  146.940;  137.108
721.197; -108.349; -667.059; -600.893
721.461; -128.397; -851.059; -826.893
721.725;  -21.320;  -21.059; -250.894
721.990;  -47.143; -284.059; -204.894
722.254;  -38.766;  -26.059; -108.894
722.518;  -75.814; -286.058; -442.895
722.782;  -97.613; -743.058; -594.895
723.046;  129.564;  614.942;  570.105
723.310;   20.091;  374.942;  210.104
723.574; -104.907; -654.058; -614.896
723.838; -110.930; -576.057; -642.897
724.102;  -42.778; -226.057; -239.897
724.366; -142.552;-1032.057; -978.897
724.630;  -96.000; -749.057; -571.898
724.894;  -86.473; -722.057; -514.898
725.158;   -1.971;   38.944; -295.898
725.422;  -67.094; -394.056; -327.899
725.685;  -66.142; -441.056; -349.899
725.949;  -96.291; -566.056; -519.900
726.213;  -72.689; -732.056; -811.900
726.477;  172.938;-1020.055; -933.900
726.740;  135.315; -274.055; -104.901
727.004;  346.417; -384.055; -510.901
727.268; 3347.744; -442.055; -400.901
727.531;  861.670; -961.055; -775.902
727.795;  -38.553; -713.054; -673.902
728.059;  -79.551; -552.054; -557.903
728.322;  -78.149; -841.054; -669.903
728.586;   23.503; -692.054; -701.903
728.849;  -74.870; -695.053; -756.904
729.112; -125.269; -812.053; -912.904
729.376; -115.192; -959.053; -905.904
729.639;  -79.215; -536.053; -536.905
729.903; -112.163; -733.053; -699.905
730.166;  -51.611; -437.052; -399.906
730.429;  -22.659; -317.052; -468.906
730.693;  -81.758; -355.052; -894.906
730.956;  222.594;  810.948;  651.093
731.219;  711.896; -310.052; -103.907
731.482;  130.348;-1003.051; -894.907
731.745;   85.475; -794.051; -935.908
732.009;   20.177;  -30.051;   50.092
732.272;  -94.672; -904.051; -771.909
732.535;  -31.120; -300.051; -310.909
732.798; -153.243;-1083.050;-1166.909
733.061;  -50.866; -430.050; -456.910
733.324;    0.911;   31.950; -180.910
733.587;   63.313;  290.950;  365.090
733.850;  -74.636; -973.049;-1050.911
734.113;   28.966;   33.951;   32.089
734.376;    9.318; -328.049; -447.912
734.639;  229.670; 1188.951; 1011.088
734.901;   62.147; -180.049; -402.912
735.164;  555.049; -883.048; -837.913
735.427; 1335.225; -166.048; -355.913
735.690;  123.852; -205.048; -234.913
735.952;  -33.696; -923.048; -925.914
736.215;  -16.644;-1113.048;-1009.914
736.478;   36.933; -771.047; -774.915
736.740;  219.659;   33.953;  129.085
737.003;  739.886; -658.047; -672.915
737.266; 4153.663;  -94.047;   46.084
737.528;  430.165; -682.047; -660.916
737.791;  336.242; -316.046; -327.916
738.053;  806.669;  465.954;  649.083
738.316;11111.370; -162.046; -136.917
738.578; 7358.422; -770.046; -736.918
738.841;  433.474; -382.046; -446.918
739.103;  181.576; -875.045; -777.918
739.365;  512.278;   79.955;  -69.919
739.628;  -21.420; -884.045; -805.919
739.890;  -28.169; -758.045; -710.919
740.152;  -43.442; -692.044; -754.920
740.414;   -8.765; -408.044; -359.920
740.677;  -62.013; -785.044; -634.921
740.939;  -48.286; -587.044; -487.921
741.201;  279.566; -432.044; -572.921
741.463;   31.492; -689.043; -745.922
741.725;   -4.531;  -21.043; -199.922
741.987;   67.671;  220.957;  116.078
742.249;   19.098; -751.043; -859.923
742.511;  232.750; -703.043; -794.923
742.773;    7.452; -546.042; -546.924
743.035;  121.228;  796.958;  533.076
743.297;  -36.270; -963.042;-1013.924
743.559;  751.707; -278.042; -262.925
743.821;   46.784; -735.042; -744.925
744.083;   14.761;  -44.041; -149.925
744.345; -103.587; -869.041; -892.926
744.607;   44.464;   75.959;  122.074
744.868;  -67.809; -490.041; -554.927
745.130;  -98.282; -994.041;-1008.927
745.392;   30.295;   -1.040;  -44.927
745.653;   -1.728; -411.040; -378.928
745.915;  143.974;  896.960;  631.072
746.177;   73.025;   35.960;  -43.928
746.438;   -9.298; -428.040; -543.929
746.700;  -41.971; -947.039; -988.929
746.961;   -2.769; -659.039; -740.930
747.223;  129.883; -190.039;  -74.930
747.484;   76.360; -391.039; -471.930
747.746;  153.036;  -23.038; -106.931
748.007;  102.313; -647.038; -689.931
748.269;  292.865; -468.038; -440.931
748.530;  483.142; -852.038; -638.932
748.791;  274.319; -354.038; -420.932
749.053;  443.346;  286.963;  163.067
749.314;  479.497; -236.037; -169.933
749.575;  503.024; -945.037; -905.933
749.836;  869.976; -217.037;   86.066
750.098; 2617.078;  -60.037;  -21.934
750.359;37840.880;  414.964;  555.066
750.620; 9001.107; -121.036; -220.935
750.881; 1052.908; -585.036; -513.935
751.142; 1378.510; -950.036; -938.936
751.403;17330.787; -789.036; -705.936
751.664; 7100.589;-1034.035; -999.936
751.925;  469.141; -175.035; -262.937
752.186;  263.867; -298.035; -278.937
752.447;  143.219; -590.035; -445.937
752.708;   27.546; -532.035; -648.938
752.969;    1.848; -566.034; -576.938
753.230;  -13.175; -777.034; -672.939
753.491;   -0.573; -650.034; -631.939
753.751;   45.328;  109.966;   19.061
754.012;   87.230;  258.967;  181.060
754.273;   34.957; -174.033;  -71.940
754.534;   11.884; -487.033; -580.940
754.794;  -93.714; -926.033; -911.941
755.055;  155.238; 1051.967;  881.059
755.316;  -59.786; -700.032; -566.942
755.576;  -21.634; -606.032; -576.942
755.837;  -48.907; -527.032; -695.942
756.097;  -24.205; -530.032; -564.943
756.358;  -86.403; -725.032; -770.943
756.618;  -45.176; -705.031; -641.943
756.879;    3.150; -254.031; -349.944
757.139; -129.773;-1098.031;-1116.944
757.400;  -64.046; -538.031; -553.945
757.660;  -15.419; -365.031; -401.945
757.920;    0.508; -266.030; -228.945
758.181;  -17.965; -468.030; -351.946
758.441;  -98.764; -870.030; -809.946
758.701;  -33.912; -308.030; -215.946
758.961;  -30.860; -220.030; -278.947
759.222;  -44.358; -574.029; -502.947
759.482;  -86.231; -683.029; -723.948
759.742;  -95.979; -706.029; -547.948
760.002;    3.772;  -83.029; -143.948
760.262;   19.774;   50.972;  182.051
760.522;  -41.449; -498.028; -574.949
760.782;  -42.247; -738.028; -612.949
761.042;  -32.070; -618.028; -573.950
761.302;   46.307;   55.972;  -18.950
761.562;   45.408; -164.027; -154.951
761.822;   96.760; -710.027; -551.951
762.082;  -59.363;-1104.027;-1093.951
762.342;   75.064; -328.027; -403.952
762.601;   73.616; -567.027; -506.952
762.861;  366.068; -281.026; -207.952
763.121;  418.194; -406.026; -411.953
763.381; 7672.721; -499.026; -485.953
763.640; 7908.698; -139.026; -307.954
763.900;  374.275; -242.026; -203.954
764.160;   80.777; -458.025; -491.954
764.419;  -17.321; -726.025; -782.955
764.679;  -73.320; -795.025; -726.955
764.939;   -7.043; -124.025; -210.955
765.198;  -87.441; -608.025; -563.956
765.458;  -67.364; -710.024; -612.956
765.717;  -82.787; -454.024; -590.957
765.976;  -51.386; -428.024; -411.957
766.236;  -90.884; -475.024; -610.957
766.495;   16.643;  260.977;   73.042
766.755;  -97.155;-1090.023; -987.958
767.014;    2.622; -594.023; -665.958
767.273;  -68.951; -373.023; -397.959
767.533;  -49.700; -228.023; -307.959
767.792;  -32.373; -151.022; -188.960
768.051;  -47.421; -228.022; -276.960
768.310;  -92.694; -546.022; -650.960
768.569;   -2.842; -161.022;    4.039
768.828;  -26.715; -285.022; -363.961
769.088; -112.614;-1050.021; -942.961
769.347;  -79.862; -755.021; -599.962
769.606;  -89.135; -876.021; -857.962
769.865; -136.333;-1016.021;-1033.963
770.124;   17.219; -411.021; -336.963
770.383;  -54.929; -778.020; -910.963
770.641;    3.972; -398.020; -400.964
770.900;  -82.851; -953.020; -846.964
771.159;  -45.749; -851.020; -951.964
771.418;  -33.222; -917.020; -779.965
771.677;  134.255; -224.019; -293.965
771.936;  117.657; -794.019; -865.966
772.194; 2345.633; -465.019; -437.966
772.453;10721.060; -213.019; -391.966
772.712;  742.112;  416.982;  329.033
772.970;  120.189;   32.982;   63.033
773.229;   88.016;  -22.018;  102.033
773.488;  -74.957; -814.018; -770.968
773.746;   55.094;  296.982;  335.032
774.005;   10.396;  190.983;  -22.969
774.263;    9.298;  243.983;  177.031
774.522;  -82.900; -422.017; -548.969
774.780;  -80.198; -484.017; -417.970
775.039;  -87.471; -551.017; -531.970
775.297;  -31.945; -135.016; -351.970
775.555; -105.568; -489.016; -612.971
775.814; -117.291; -618.016; -570.971
776.072; -138.239; -749.016; -740.971
776.330;  -96.212; -630.016; -520.972
776.589; -123.460; -703.015; -721.972
776.847; -133.234; -645.015; -624.973
777.105; -168.282;-1016.015;-1032.973
777.363;  -71.505; -459.015; -454.973
777.621; -143.728; -660.015; -717.974
777.879;  -22.001;  -42.014;   32.026
778.138; -115.524; -554.014; -717.974
778.396; -104.248; -585.014; -526.975
778.654; -174.221;-1015.014; -970.975
778.912;  -61.644; -269.014; -371.976
779.170; -150.092; -880.013; -803.976
779.427; -151.090; -922.013; -897.976
779.685; -145.088; -880.013; -832.977
779.943;  -65.687; -654.013; -593.977
780.201; -169.560; -964.012; -883.978
780.459; -136.733; -651.012; -610.978
780.717;  -99.081; -440.012; -390.978
780.974;  -92.629; -449.012; -490.979
781.232;  -74.228; -358.012; -338.979
781.490;  -72.701; -551.011; -472.979
781.747; -108.849; -555.011; -476.980
782.005;   31.578;  462.989;  254.020
782.263; -183.920; -542.011;-1004.981
782.520;  -80.518; -326.011; -501.981
782.778; -176.767;-1013.010;-1051.981
783.035; -162.465; -962.010; -938.982
783.293;  -83.388; -248.010; -206.982
783.550;  -54.786; -134.010; -198.982
783.808; -146.409; -764.010; -776.983
784.065; -168.232; -745.009; -874.983
784.322;  -54.706;   25.991;  -86.984
784.580; -137.729; -915.009; -771.984
784.837; -105.027; -392.009; -466.984
785.094; -139.475; -783.009; -762.985
785.352;  -79.573; -304.008; -404.985
785.609; -114.696; -934.008; -839.985
785.866;  -90.095; -345.008; -401.986
786.123;  -69.393; -639.008; -583.986
786.380; -117.666; -665.008; -604.987
786.637;  -40.014; -225.007; -380.987
786.895;  -22.662; -456.007; -543.987
787.152;  -41.610; -135.007; -267.988
787.409;  -52.234; -123.007; -225.988
787.666;  -93.432; -299.006; -378.988
787.923; -108.780; -616.006; -695.989
788.179; -111.303; -551.006; -584.989
788.436; -107.551; -585.006; -585.990
788.693;  -30.324;  -92.006;  -87.990
788.950;  174.527; -125.005; -112.990
789.207;  207.254; -381.005; -372.991
789.464;  -63.094; -161.005; -301.991
789.720;    3.983;  150.995;  110.009
789.977; -183.815;-1003.005; -671.992
790.234;  -33.438;   44.996;  -66.992
790.490; -175.537; -884.004;-1031.993
790.747;  -20.735;  -85.004;   22.007
791.004;  -43.033; -426.004; -348.993
791.260;  -61.981; -430.004; -560.994
791.517;  -97.254; -843.003; -788.994
791.773;  -47.477; -379.003; -342.994
792.030; -121.051; -596.003; -660.995
792.286;  -93.474; -686.003; -636.995
792.543;  -27.247;  -74.002; -159.995
792.799;  -29.645; -584.002; -382.996
793.055; -181.593;-1179.002;-1210.996
793.312;  -94.416; -827.002; -816.997
793.568;  -57.740; -746.002; -599.997
793.824;   11.937; -226.001; -284.997
794.081;   13.864; -447.001; -508.998
794.337;   64.516; -664.001; -561.998
794.593; 1450.118; -319.001; -271.999
794.849; 6560.870; -746.001; -772.999
795.105;  304.821; -270.000; -261.999
795.361;   25.023; -490.000; -457.000
795.617;  -78.225; -875.000; -945.000
795.873;  -62.325; -360.000; -407.000
796.129;  -42.575; -368.000; -306.000
796.385;   -2.350; -124.000; -156.000
796.641;   53.350;  412.000;  550.000
796.897;  -84.425; -666.000; -635.000
797.153;   55.775;  453.000;  357.000
797.409; -102.525; -785.000; -868.000
797.665;  -92.475; -625.000; -732.000
797.921;  -83.550; -775.000; -762.000
798.176;  -77.375; -744.000; -747.000
798.432;  -38.625; -824.000; -596.000
798.688;  -93.175;-1174.000;-1078.000
798.943;   82.450; -165.000; -147.000
799.199;    2.800;-1005.000; -959.000
799.455;  245.950;  369.000;  316.000
799.710;  122.925; -813.000; -380.000
799.966;  301.875; -162.000; -160.000
800.221;  475.325; -638.000; -721.000
800.477;10950.725; -743.000; -710.000
800.732; 8843.100; -773.000; -800.000
800.988;  620.025;  205.000;  -19.000
801.243; 1864.250; -454.000; -344.000
801.498; 7345.725; -814.000; -739.000
801.754;  400.800; -289.000; -163.000
802.009;   79.300; -257.000; -335.000
802.264;  -72.125; -967.000;-1033.000
802.520;   16.375;  222.000;   -3.000
802.775;  -49.725; -524.000; -359.000
803.030;   46.050;  395.000;  356.000
803.285; -130.100; -840.000; -903.000
803.540;  -64.050; -686.000; -699.000
803.795;  -48.450; -648.000; -583.000
804.051;  -37.975; -279.000; -346.000
804.306;   12.925;  168.000;  128.000
804.561;  152.300;  451.000;  362.000
804.816;  124.925;  714.000;  861.000
805.071;   18.850; -185.000; -280.000
805.325;  211.825; -257.000; -427.000
805.580; -107.050; -841.000; -877.000
805.835;  -32.525; -204.000; -297.000
806.090;  -82.775; -760.000; -676.000
806.345;  -24.275; -344.000; -264.000
806.600;  -22.925; -549.000; -632.000
806.854;  -31.875; -408.000; -538.000
807.109;  -19.100; -493.000; -577.000
807.364;   -2.775; -407.000; -328.000
807.618;   -5.775; -415.000; -381.000
807.873;   46.550; -470.000; -494.000
808.128;  106.000; -257.000; -518.000
808.382;   92.575; -224.000; -332.000
808.637;   57.500; -440.000; -511.000
808.891;  184.825; -257.000; -180.000
809.146;  111.100; -902.000; -794.000
809.400;  263.150; -848.000; -923.000
809.654;  347.050; -779.000; -551.000
809.909;  493.775; -841.000; -927.000
810.163; 7250.675; -813.000; -651.000
810.418;17115.450; -940.000; -861.000
810.672; 1024.000; -685.000; -690.000
810.926;  723.475; -993.000; -973.000
811.180; 1458.850; -439.000; -372.000
811.434;32377.725;  240.000;  135.000
811.689;11841.125; -231.000; -365.000
811.943;  596.575; -936.000; -953.000
812.197;  313.475; -893.000; -671.000
812.451;  115.100; -379.000; -514.000
812.705;  -12.250; -809.000; -619.000
812.959;  -10.500; -263.000; -388.000
813.213;    0.375; -283.000; -209.000
813.467;   65.600;  470.000;  253.000
813.721; -100.650; -764.000; -792.000
813.975; -119.050; -826.000; -877.000
814.229;   53.875;  430.000;  353.000
814.482;  -81.825; -517.000; -566.000
814.736; -103.350; -766.000; -744.000
814.990; -141.000; -779.000; -872.000
815.244;  -46.050; -228.000; -285.000
815.497; -106.225; -636.000; -601.000
815.751;   -2.200; -141.000;   82.000
816.005;  -94.400; -470.000; -586.000
816.258;  -67.950; -510.000; -363.000
816.512; -119.950; -693.000; -610.000
816.766;    5.125;  121.000;  157.000
817.019;   14.375;  148.000;  149.000
817.273; -120.925;-1000.000; -802.000
817.526;  -35.375; -206.000; -173.000
817.779;  -41.275;-1049.000; -960.000
818.033; -103.475; -693.000; -807.000
818.286; -128.000; -725.000; -792.000
818.540; -106.675; -403.000; -403.000
818.793;  -69.350; -402.000; -489.000
819.046; -114.300; -582.000; -520.000
819.299;  -37.175; -157.000; -166.000
819.553; -114.075; -552.000; -592.000
819.806; -165.750;-1016.000; -838.000
820.059;  -68.225; -334.000; -354.000
820.312;   26.025;  152.000;  185.000
820.565;  -24.925;  110.000;  -27.000
820.818;  -43.800;  -59.000; -173.000
821.071; -161.275;-1041.000; -957.000
821.324;  -96.725; -536.000; -540.000
821.577; -108.550; -457.000; -483.000
821.830;  -70.650; -270.000; -172.000
822.083; -131.450; -733.000; -288.000
822.336;  -42.450; -261.000; -167.000
822.589; -150.425; -805.000; -688.000
822.842; -144.000; -875.000; -770.000
823.094; -185.950;-1076.000;-1114.000
823.347; -144.575; -925.000; -729.000
823.600;    7.150;  402.000;  187.000
823.853;  -47.500; -311.000; -267.000
824.105;  -78.250; -331.000; -575.000
824.358; -113.850; -617.000; -716.000
824.611;   18.150;  234.000;   40.000
824.863;  -43.975; -612.000; -591.000
825.116;   36.325;  -33.000;   27.000
825.368;   94.625; -366.000; -372.000
825.621;  161.100; -186.000; -240.000
825.873;   96.775; -704.000; -737.000
826.126;  622.925; -669.000; -641.000
826.378;11904.300; -389.000; -505.000
826.630; 2612.850; -890.000; -898.000
826.883;   38.025; -754.000; -693.000
827.135;   42.200; -279.000; -270.000
827.387; -121.400; -893.000; -839.000
827.639;  -39.825;  -86.000;   32.000
827.892; -124.025; -742.000; -582.000
828.144; -167.175; -848.000; -804.000
828.396;  -36.225;  104.000;  -80.000
828.648; -113.300; -440.000; -333.000
828.900; -151.125; -702.000; -795.000
829.152; -125.050; -684.000; -683.000
829.404;  -60.775; -215.000; -267.000
829.656;  -52.275;  321.000;  214.000
829.908;  -14.475;  393.000;  229.000
830.160; -178.400;-1064.000;-1047.000
830.412;  -94.500; -481.000; -430.000
830.664; -121.625; -557.000; -665.000
830.916;  -77.550; -268.000; -206.000
831.167; -196.375;-1073.000; -951.000
831.419; -108.875; -623.000; -566.000
831.671; -172.350; -764.000; -809.000
831.923;  -76.425; -311.000; -447.000
832.174;  -89.775; -273.000; -331.000
832.426; -103.925; -493.000; -582.000
832.678; -185.200;-1043.000;-1091.000
832.929; -161.675; -947.000; -935.000
833.181;  -66.050; -575.000; -677.000
833.432;  -51.150;  -59.000; -186.000
833.684;  -26.325;  112.000;  -27.000
833.935; -125.075; -610.000; -566.000
834.187; -141.325; -829.000; -823.000
834.438;  -45.075;  -58.000;  -25.000
834.689;  -66.625; -255.000; -123.000
834.941;  -54.700; -343.000; -244.000
835.192; -129.000; -590.000; -533.000
835.443; -105.600; -419.000; -506.000
835.695;  -10.725;  138.000;  -16.000
835.946;  -87.300; -608.000; -378.000
836.197; -109.300; -599.000; -622.000
836.448;  -77.325; -528.000; -395.000
836.699;  -66.125; -253.000; -341.000
836.950;   -0.025;   72.000;    7.000
837.201; -154.150;-1003.000; -987.000
837.452;  -38.875; -356.000; -170.000
837.703; -116.550; -791.000; -737.000
837.954;  -31.600; -205.000; -365.000
838.205;  -87.275;-1029.000;-1008.000
838.456;  170.025; -196.000; -282.000
838.707;  -15.175; -423.000; -519.000
838.958;    5.925; -634.000; -647.000
839.209;  278.100;   18.000;   40.000
839.460;  129.600; -439.000; -201.000
839.710;  158.175; -135.000; -297.000
839.961;  423.475;  730.000;  612.000
840.212;  344.400; -382.000; -497.000
840.462; 1214.100; -328.000; -277.000
840.713;18578.025; -571.000; -536.000
840.964; 6771.750;  -62.000; -143.000
841.214;  510.525; -384.000; -624.000
841.465;  577.075; -214.000; -141.000
841.715;  509.500; -417.000; -380.000
841.966;  664.725; -746.000; -685.000
842.216; 9992.175; -330.000; -431.000
842.466;35035.950; -169.000; -313.000
842.717; 1722.675; -964.000; -952.000
842.967;  338.025; -635.000; -641.000
843.217;  258.825;   20.000;   28.000
843.468;   68.725; -104.000; -132.000
843.718;  -39.150; -718.000; -726.000
843.968;  -95.300; -837.000; -765.000
844.218;   25.775; -315.000; -262.000
844.469;  -54.525; -577.000; -561.000
844.719; -120.525; -537.000; -682.000
844.969;  -89.550; -550.000; -580.000
845.219; -141.400; -814.000; -862.000
845.469;  -78.900; -392.000; -342.000
845.719; -141.850; -792.000; -884.000
845.969;   -6.250;  119.000;  174.000
846.219; -126.000; -738.000; -720.000
846.469;   39.975;  464.000;  432.000
846.718;  -44.925; -115.000;   31.000
846.968; -134.925; -827.000; -827.000
847.218;  -57.500; -224.000; -371.000
847.468;   -2.275; -586.000; -555.000
847.718; -152.150; -827.000; -798.000
847.967; -139.225; -826.000; -915.000
848.217;  -81.700; -449.000; -569.000
848.467;  -66.975; -405.000; -376.000
848.716; -119.125; -708.000; -725.000
848.966;   10.025; -372.000; -358.000
849.215;  -68.875; -428.000; -419.000
849.465;  -80.800; -785.000; -615.000
849.714; -158.350;-1132.000;-1150.000
849.964;  -60.100; -551.000; -613.000
850.213;  -20.675; -393.000; -355.000
850.463;   78.200;  137.000;  340.000
850.712;   -9.725; -542.000; -567.000
850.961;   12.400; -739.000; -678.000
851.211;   97.600; -513.000; -504.000
851.460;  153.575; -635.000; -650.000
851.709;  593.350;  -25.000;   18.000
851.958;10885.950; -912.000; -750.000
852.208;12149.775; -859.000; -879.000
852.457;  447.850; -181.000;  -13.000
852.706;   43.275; -791.000; -823.000
852.955;   18.225; -507.000; -528.000
853.204;  -80.175; -521.000; -461.000
853.453; -103.500; -418.000; -458.000
853.702; -138.375; -660.000; -750.000
853.951; -108.750; -532.000; -520.000
854.200; -131.700; -613.000; -562.000
854.449; -133.550; -695.000; -661.000
854.698;  -99.550; -340.000; -279.000
854.946;  -69.700; -181.000; -284.000
855.195; -154.675; -843.000; -868.000
855.444;  -90.850; -395.000; -420.000
855.693; -127.625; -345.000; -432.000
855.941; -109.425; -387.000; -516.000
856.190;  -72.225; -256.000; -382.000
856.439; -141.800; -652.000; -703.000
856.687;  -64.850;  -99.000;  -72.000
856.936; -117.475; -621.000; -323.000
857.184; -192.350;-1067.000;-1020.000
857.433;  -98.525; -423.000; -512.000
857.681; -178.950; -989.000; -953.000
857.930;  -70.025; -282.000; -433.000
858.178; -179.625; -856.000; -929.000
858.427; -159.725; -802.000; -781.000
858.675; -128.775; -377.000; -544.000
858.923; -112.250; -527.000; -819.000
859.172; -201.550;-1094.000;-1070.000
859.420;  -73.650; -339.000; -239.000
859.668; -131.550; -624.000; -628.000
859.916;  -30.350;  109.000;  115.000
860.164; -114.750; -699.000; -603.000
860.413;  320.575; -878.000; -696.000
860.661;  199.125; -709.000; -577.000
860.909;  -74.925; -339.000; -325.000
861.157;  -91.675; -277.000; -444.000
861.405; -130.325; -534.000; -670.000
861.653;    2.725;  310.000;  310.000
861.901;  200.900; -543.000; -613.000
862.149;  -16.975; -801.000; -824.000
862.396;  -74.075; -297.000; -187.000
862.644;  -94.000; -368.000; -347.000
862.892;  -41.200;   98.000;  138.000
863.140; -142.575; -549.000; -530.000
863.388; -167.900; -815.000; -759.000
863.635; -132.900; -642.000; -601.000
863.883;  -13.700;  231.000;  190.000
864.131;  -93.950; -288.000; -357.000
864.378; -135.550; -675.000; -540.000
864.626; -112.825; -347.000; -415.000
864.873; -122.150; -556.000; -505.000
865.121; -148.750; -714.000; -799.000
865.368;  -44.975; -173.000;   75.000
865.616;  -47.850;  -33.000;  -40.000
865.863;  -75.750; -462.000; -506.000
866.111; -132.025; -795.000; -824.000
866.358;   27.500; -426.000; -420.000
866.605; 2295.750;  -64.000; -804.000
866.853; 2126.175; -621.000; -537.000
867.100;  -42.350; -728.000; -775.000
867.347; -105.950; -672.000; -611.000
867.594; -100.000; -740.000; -714.000
867.841;  100.575;   97.000;   17.000
868.089; -162.700; -746.000; -698.000
868.336; -114.450; -477.000; -420.000
868.583; -156.600; -637.000; -741.000
868.830;  -54.475; -131.000; -170.000
869.077; -206.850; -859.000; -787.000
869.324; -124.200; -502.000; -458.000
869.571; -150.850; -398.000; -430.000
869.818; -124.825; -485.000; -439.000
870.065;  -95.875; -439.000; -513.000
870.311;  -97.725; -456.000; -542.000
870.558; -121.350; -332.000; -311.000
870.805;  -84.275; -320.000; -384.000
871.052; -113.950; -494.000; -369.000
871.298;  -60.825; -204.000; -131.000
871.545;  -76.550; -151.000; -185.000
871.792;  -81.125; -173.000; -222.000
872.038;  -78.150;   43.000; -126.000
872.285; -119.675; -496.000; -387.000
872.532; -101.050; -357.000; -387.000
872.778;    2.325;  556.000;  403.000
873.025; -101.725; -384.000; -359.000
873.271;   14.800;  501.000;  578.000
873.517;  -50.400; -133.000; -209.000
873.764;  -33.425; -193.000;  -80.000
874.010;  -65.825; -143.000; -230.000
874.257;  -53.450;  123.000;   90.000
874.503; -150.150; -579.000; -479.000
874.749;  -82.625;   31.000;  275.000
874.995;  -84.725;  -80.000;  -20.000
875.242; -123.450; -540.000; -478.000
875.488; -126.575; -414.000; -439.000
875.734;  -49.700; -106.000; -234.000
875.980;  204.275; -872.000;-1032.000
876.226;  361.925; -157.000; -255.000
876.472;  -18.225;  343.000;  237.000
876.718;  -32.800;  184.000;  158.000
876.964;  -49.825;   56.000;   55.000
877.210; -165.200; -547.000; -677.000
877.456; -150.675; -630.000; -557.000
877.702; -173.650; -821.000; -832.000
877.948; -123.425; -377.000; -497.000
878.193;   14.000;  361.000;  255.000
878.439; -103.150; -487.000; -472.000
878.685;  -95.175; -272.000; -343.000
878.931; -149.625; -618.000; -676.000
879.176;  -95.925; -201.000; -201.000
879.422; -196.825; -933.000; -820.000
879.668;   66.775;   10.000;   79.000
879.913;  140.875;   53.000;  137.000
880.159;  -48.575; -112.000;  -17.000
880.404;  -68.675; -152.000; -162.000
880.650;  -28.425;   91.000;  141.000
880.895; -168.550; -670.000; -710.000
881.141; -124.800; -454.000; -428.000
881.386; -152.575; -503.000; -658.000
881.631;  -94.025; -311.000; -166.000
881.877;  -39.975;  112.000;  -13.000
882.122; -144.250; -684.000; -600.000
882.367; -104.400; -136.000; -186.000
882.612;  -74.900;  -80.000; -176.000
882.858; -176.575; -877.000; -823.000
883.103;  -91.700; -297.000; -267.000
883.348; -158.625; -759.000; -852.000
883.593; -144.450; -677.000; -602.000
883.838;  -68.500; -311.000;  -24.000
884.083;   20.525;  353.000;  288.000
884.328; -105.725; -564.000; -545.000
884.573;  -44.350; -196.000; -143.000
884.818;  207.700; -694.000; -531.000
885.063;  180.075; -348.000; -315.000
885.308; -118.500; -475.000; -398.000
885.553;  -15.875;  245.000;  325.000
885.797; -137.100; -545.000; -615.000
886.042;  -44.425;    8.000;   58.000
886.287;  -80.725; -253.000; -211.000
886.532;  -31.200;   26.000;  204.000
886.776; -115.100; -407.000; -525.000
887.021; -143.300; -621.000; -574.000
887.265; -160.225; -685.000; -689.000
887.510; -129.150; -557.000; -496.000
887.755;  -94.375; -194.000; -164.000
887.999; -136.250; -552.000; -575.000
888.244;  -78.475;  -58.000;  161.000
888.488;   -2.625;  371.000;  393.000
888.732; -148.325; -368.000; -520.000
888.977; -128.550; -622.000; -567.000
889.221; -168.600; -683.000; -659.000
889.465; -119.225; -422.000; -566.000
889.710;  -98.925;  -56.000; -299.000
889.954;    5.625;  579.000;  467.000
890.198; -155.425; -584.000; -707.000
890.442; -156.175; -716.000; -712.000
890.687; -172.950; -800.000; -753.000
890.931;  -92.350; -273.000; -210.000
891.175; -137.075; -502.000; -500.000
891.419;  -85.050; -105.000; -110.000
891.663; -102.250; -239.000; -112.000
891.907; -156.775; -801.000; -545.000
892.151; -188.175; -920.000; -815.000
892.395; -110.800; -274.000; -387.000
892.638;  -21.125;  408.000;  291.000
892.882; -170.975; -780.000; -867.000
893.126;   11.325;  758.000;  558.000
893.370;  -90.350; -167.000; -168.000
893.614; -152.425; -714.000; -715.000
893.857; -109.675; -183.000; -197.000
894.101; -145.825; -527.000; -631.000
894.345;  -48.300;  300.000;  150.000
894.588;    1.525;  569.000;  380.000
894.832;  -82.725; -178.000;  -84.000
895.075;  -84.425;   15.000;  -92.000
895.319; -134.650; -552.000; -420.000
895.563; -127.450; -413.000; -353.000
895.806; -153.175; -628.000; -741.000
896.049;  -69.125; -576.000; -368.000
896.293;  106.900;  527.000;  405.000
896.536;  -89.900; -465.000; -468.000
896.779;  -44.825; -149.000;   -1.000
897.023; -152.100; -751.000; -714.000
897.266;  -28.825;  325.000;  269.000
897.509; -192.125; -900.000; -901.000
897.752;  -57.125;  149.000;  171.000
897.996; -202.950; -972.000; -864.000
898.239;  -61.175;  168.000;  102.000
898.482; -138.975; -431.000; -453.000
898.725;  -34.900;  101.000;   53.000
898.968; -161.600; -609.000; -744.000
899.211; -108.575; -513.000; -361.000
899.454; -147.575; -633.000; -539.000
899.697;  -72.100;   90.000;  -43.000
899.940; -185.150; -761.000; -757.000
900.182;  -99.175; -335.000; -405.000
900.425;  -90.975; -150.000; -298.000
900.668;  -23.750;  491.000;  350.000
900.911; -122.725; -292.000; -345.000
901.154;  -47.625;  141.000;   -3.000
901.396; -147.675; -407.000; -412.000
901.639; -140.125; -430.000; -496.000
901.882; -192.375; -790.000; -809.000
902.124;  -76.975;  -29.000; -143.000
902.367; -111.700; -315.000; -361.000
902.609; -123.600; -476.000; -453.000
902.852; -100.600; -108.000; -260.000
903.094; -137.500; -458.000; -337.000
903.337;  -62.125;  -26.000;   53.000
903.579; -106.825; -228.000; -441.000
903.821; -166.050; -597.000; -744.000
904.064;  -69.475;   85.000;  127.000
904.306;  -90.125; -126.000; -166.000
904.548;  -99.475; -152.000; -366.000
904.790; -110.675; -195.000; -340.000
905.033; -113.725; -625.000; -577.000
905.275; -143.975; -513.000; -524.000
905.517;   52.375;  468.000;  256.000
905.759;  -76.225; -667.000; -761.000
906.001; -110.775; -322.000; -369.000
906.243;  -74.450; -162.000; -224.000
906.485;  116.425; -265.000; -207.000
906.727;   96.475; -499.000; -542.000
906.969;  -22.625;  -30.000; -135.000
907.211;  121.150; -316.000; -382.000
907.453;  304.175; -188.000; -237.000
907.695;  -25.425; -158.000; -385.000
907.936;   48.850;  818.000;  706.000
908.178;  -85.025;   92.000; -135.000
908.420;  -69.525; -111.000; -162.000
908.662; -148.325; -633.000; -682.000
908.903;  -76.450; -208.000; -123.000
909.145;  -68.150; -240.000; -305.000
909.386;    4.525;  315.000;  280.000
909.628;   25.650;  363.000;  397.000
909.870;    4.500;   29.000;  264.000
910.111; -108.050; -809.000; -949.000
910.353;    5.225; -123.000; -161.000
910.594;   -4.800; -574.000; -606.000
910.835;   74.525; -265.000; -326.000
911.077;  132.950; -503.000; -604.000
911.318;  290.575; -505.000; -471.000
911.559;  429.275; -577.000; -880.000
911.801; 1376.875; -284.000; -280.000
912.042;11028.900;  -50.000; -159.000
912.283;26554.600;  404.000;  371.000
912.524; 3666.525; -396.000; -457.000
912.765;  444.375; -193.000;   79.000
913.006;  235.300; -307.000; -338.000
913.247;   49.125; -270.000; -290.000
913.488;  -14.700;  -43.000;   30.000
913.729;  -90.075; -373.000; -373.000
913.970;  -70.625;  -96.000; -292.000
914.211;  -79.350; -160.000; -198.000
914.452;  -79.625; -118.000;  -11.000
914.693;   23.875;  510.000;  592.000
914.934;   -8.300;  510.000;  440.000
915.175;  -69.075;   53.000;  -95.000
915.415;  -82.975; -137.000;   27.000
915.656;  -60.250;  -28.000;  192.000
915.897;  -97.750; -252.000;  -82.000
916.137;  -87.950;   74.000;   -9.000
916.378; -145.075; -573.000; -517.000
916.619;  -89.550; -159.000;  -63.000
916.859;  -46.750;  303.000;  330.000
917.100;  134.150; 1655.000; 1070.000
917.340;   35.575;  930.000;  728.000
917.581;   57.100;  965.000;  789.000
917.821;  -39.250; -171.000;  143.000
918.061;   -1.200; -199.000;  -72.000
918.302;  -69.100; -152.000; -211.000
918.542;  -26.525;  -22.000;    3.000
918.782;   23.225;  369.000;  377.000
919.023;  141.950;  360.000;  427.000
919.263; 1376.050; 8131.000;  202.000
919.503; 1112.325; -137.000;  -54.000
919.743;  635.550;  390.000;  266.000
919.983;  264.875; -134.000;  -26.000
920.223;   57.850;  135.000;   14.000
920.463;  142.925;  631.000;  554.000
920.703;  106.450;   84.000;   39.000
920.943;  170.775; -110.000;   90.000
921.183;  222.475; -414.000; -405.000
921.423;  488.100;  307.000;  546.000
921.663;  696.925; -174.000; -257.000
921.903; 1611.575;  237.000;  173.000
922.143; 9073.050;  372.000;  389.000
922.383;33690.750;  158.000;  115.000
922.622;10283.725; -120.000;  -15.000
922.862; 1136.175;  796.000;  785.000
923.102;  425.000;  -51.000;   33.000
923.341;  163.600;   59.000;   74.000
923.581;   80.900;  450.000;  360.000
923.821;   20.200;  301.000;  398.000
924.060;    1.325;  351.000;  193.000
924.300;  -42.375;  -16.000; -128.000
924.539;  -23.075;  584.000;  473.000
924.779;   24.125;  812.000;  597.000
925.018;  -58.450;  247.000;  353.000
925.257;   10.150;  595.000;  666.000
925.497;  -43.675;  447.000;  412.000
925.736;  -76.000;  -35.000;  102.000
925.975;  -10.725;  687.000;  669.000
926.214;   16.250;  907.000;  850.000
926.454;   15.950;  706.000;  757.000
926.693;  -44.475;  419.000;  543.000
926.932;   39.400; 1021.000;  825.000
927.171;   74.925; 1107.000; 1044.000
927.410;   66.400; 1144.000;  967.000
927.649;   38.550;  924.000;  742.000
927.888;  -16.500;  590.000;  564.000
928.127;  -14.550;  680.000;  678.000
928.366;   27.650;  842.000;  826.000
928.605;   42.300;  831.000;  737.000
928.844;  240.825; 1451.000; 1393.000
929.083;  636.075;  770.000;  613.000
929.321;  308.725; 1335.000; 1359.000
929.560;   97.650; 1158.000; 1122.000
929.799;  -47.975;  574.000;  475.000
930.038;   85.175; 1025.000; 1394.000
930.276;  -58.125;  334.000;  397.000
930.515;    5.500;  827.000;  681.000
930.753;  -19.600;  614.000;  589.000
930.992;  -12.525;  664.000;  717.000
931.230;    2.725;  847.000;  847.000
931.469;  191.400; 2162.000;  892.000
931.707;   68.850;  840.000;  751.000
931.946;   71.325; 1278.000; 1344.000
932.184;   62.900; 1437.000; 1175.000
932.423;   42.450; 1265.000;  963.000
932.661;   80.275; 1296.000; 1428.000
932.899;   32.825;  987.000;  821.000
933.137;   -6.675;  754.000;  564.000
933.376;  142.375; 1664.000; 1335.000
933.614;  145.200; 1759.000; 1196.000
933.852;   62.525; 1357.000; 1171.000
934.090;  128.575; 1722.000; 1747.000
934.328;   96.800; 1252.000; 1457.000
934.566;   89.575; 1431.000; 1110.000
934.804;  132.800; 1263.000; 1309.000
935.042;  437.450; 1861.000; 1850.000
935.280; 1785.475; 2088.000; 2063.000
935.518; 1550.125; 2113.000; 2007.000
935.756;  353.700; 2481.000; 2316.000
935.994;  166.075; 1808.000; 1751.000
936.231;  353.875; 2890.000; 2950.000
936.469;  181.625; 2367.000; 2378.000
936.707;  172.475; 2220.000; 2167.000
936.945;  214.225; 2825.000; 2882.000
937.182;  226.325; 2679.000; 2741.000
937.420;  306.650; 3602.000; 3031.000
937.657;  443.425; 3365.000; 3478.000
937.895;  356.300; 3331.000; 3488.000
938.133;  318.600; 3540.000; 3528.000
938.370;  352.375; 3896.000; 4191.000
938.607;  400.025; 4488.000; 4205.000
938.845;  548.425; 5587.000; 5549.000
939.082;  476.025; 5387.000; 5177.000
939.320;  568.300; 5799.000; 5728.000
939.557;  652.975; 6549.000; 6491.000
939.794;  710.650; 7285.000; 7097.000
940.031;  914.450; 8421.000; 8368.000
940.269; 1135.950; 9552.000; 9107.000
940.506; 1156.625;10901.000;10507.000

