
Integration time [ms]: 200.000
Averaging Nr. [scans]: 10
Smoothing Nr. [pixels]: 0
Data measured with spectrometer [name]: 2101013U2
Wave   ;Sample   ;Dark     ;Reference
[nm]   ;[counts] ;[counts] ;[counts] 

394.013;  -91.851; -450.257; -315.536
394.305; -114.351; -461.258; -419.536
394.596; -176.763; -676.269; -527.514
394.887; -184.861; -796.268; -654.518
395.178;    6.842;  145.736;   11.476
395.470;  -53.056; -210.263; -356.526
395.761;  108.741;  305.734;  394.479
396.052;  -81.677; -545.284; -306.489
396.343; -111.369; -557.276; -454.503
396.634;  -91.572; -200.279; -290.497
396.926; -148.061; -618.268; -565.517
397.217;  -33.068;   11.725;  -17.504
397.508;  -66.367; -366.273; -154.507
397.799; -154.572; -555.279; -571.497
398.090; -257.973; -973.280; -902.495
398.381;   12.915;   11.708;  -11.473
398.672; -184.585; -585.292; -742.473
398.963; -107.272; -348.279; -373.498
399.254;    6.916;   54.709; -209.475
399.545; -232.760;-1017.266; -883.520
399.836;  -81.870; -407.277; -343.501
400.127;  -36.688; -205.295; -209.468
400.418;  -58.967; -423.274; -392.506
400.709;  -76.675; -359.281; -333.493
401.000;  -63.884; -268.291; -309.476
401.290;   78.805;  225.698;  115.545
401.581;  -10.879; -166.286; -228.485
401.872; -131.291; -542.298; -486.462
402.163;  -39.289; -313.296; -252.467
402.454;  -24.284; -123.291; -163.475
402.744; -206.790; -844.297; -813.465
403.035;  -75.286; -226.293;  -86.471
403.326;  -72.885; -366.292; -384.474
403.617;   68.709;  204.701;  165.539
403.907; -126.276; -593.283; -679.490
404.198; -153.900; -545.307; -599.446
404.489; -153.776; -618.283; -588.491
404.779; -172.294; -618.302; -660.456
405.070;    6.503;  -67.304; -174.451
405.360;  -38.286; -259.293; -238.472
405.651;   59.107;  125.699;   98.542
405.942;   71.021;  209.714;  127.516
406.232; -120.278; -432.285; -413.487
406.523;  212.213;  641.706;  758.530
406.813; -172.479; -579.286; -644.484
407.104;  104.015;  261.708;  144.527
407.394; -179.491; -604.299; -591.462
407.685;   57.822;  336.715;  222.513
407.975; -126.076; -400.283; -382.490
408.265;  -33.182; -134.289; -190.478
408.556; -134.984; -472.291; -459.475
408.846;  177.013;  474.706;  429.530
409.137;   -2.981;   -1.288; -216.480
409.427;  -99.778; -193.285; -271.487
409.717; -187.266; -776.273; -692.508
410.007;   -0.278;    4.715; -170.486
410.298;  -90.087; -360.295; -342.469
410.588; -131.378; -495.285; -510.486
410.878; -215.780; -792.287; -873.482
411.168;  -77.991; -481.298; -478.463
411.459;  -75.676; -295.283; -242.489
411.749; -135.884; -609.292; -507.474
412.039; -219.482; -755.289; -386.480
412.329;   42.729;   40.722;  132.501
412.619;  -47.079;  -62.286; -148.485
412.909;  221.718;  639.711;  594.521
413.199;  -47.173; -130.280; -251.495
413.490;  139.517;  521.710;  352.523
413.780; -270.773;-1013.279; -913.496
414.070;   30.731;  -46.276;  235.497
414.360; -165.571; -729.278; -666.498
414.650; -171.281; -726.288; -688.482
414.940; -124.673; -538.280; -441.496
415.230;   15.719;   50.712;   74.519
415.520;   36.537;  155.730;   66.486
415.809;  -62.575; -305.281; -125.493
416.099; -142.170; -388.277; -229.501
416.389;  124.932;  435.726;  236.494
416.679;   41.044;   91.738;   85.473
416.969; -131.480; -527.287; -503.483
417.259;   70.828;  341.721;  171.503
417.549;  116.325;  522.718;  318.508
417.838;  -25.761; -205.268; -147.518
418.128;  173.918;  650.710;  492.522
418.418; -125.566; -491.272; -579.509
418.708;   12.432;    9.726;  -48.506
418.997; -132.268; -474.275; -480.505
419.287; -215.167; -733.273; -790.507
419.577;  -49.376; -160.283; -123.489
419.866; -149.170; -588.277; -498.501
420.156;   -3.763; -242.270;  -55.513
420.446;  -16.057; -112.263;  -26.526
420.735; -146.164; -376.271; -446.512
421.025;  536.129; 1830.722;  315.502
421.314;  -57.064; -203.271; -226.512
421.604;   57.138;   89.732;  233.484
421.893; -181.665; -705.271; -602.511
422.183; -136.057; -487.263; -461.526
422.472;  -22.764;  -36.271; -107.511
422.762; -113.559; -416.266; -379.521
423.051; -248.069; -916.276; -916.503
423.341; -159.667; -491.273; -439.507
423.630;  -10.558; -121.265;   15.477
423.919;   33.132;   58.725;   49.495
424.209;   -6.356;  -31.263;   56.473
424.498;   16.139;   68.732;  161.483
424.787; -149.561; -535.267; -601.518
425.077;   12.642;   34.735;   29.478
425.366; -213.655; -734.262; -744.528
425.655;  195.634;  639.727;  259.493
425.945;  -56.441; -313.247; -268.554
426.234;   14.347;  117.741;  300.467
426.523;  -65.252;  -86.259; -350.534
426.812;   40.741;  107.734;  159.480
427.101;  -17.462; -127.269; -323.515
427.390;   -0.463;  -55.270;  -86.514
427.680; -151.650; -624.257; -411.538
427.969;  -79.049; -330.255; -301.540
428.258; -132.851; -385.257; -477.536
428.547;  118.235;  449.728;  397.490
428.836; -142.347; -421.253; -398.543
429.125;  -45.452; -199.259;  -72.534
429.414;  -71.245; -330.251; -294.548
429.703;  -59.645; -231.251; -213.548
429.992; -288.844; -938.250; -828.549
430.281; -109.358; -397.264; -331.524
430.570;   42.654;  -21.252;   32.454
430.859;   68.548;  279.741;  352.466
431.148;  201.858;  636.752;  631.446
431.437;   90.654;  391.748;  367.454
431.725; -166.851; -544.257; -481.536
432.014; -251.746; -845.253; -756.545
432.303;  -72.933; -149.239; -105.569
432.592; -108.557; -460.263; -178.525
432.881; -176.541; -601.248; -437.554
433.169;  -53.749; -343.255;  -61.540
433.458;  162.371;  445.765;  540.424
433.747; -105.755; -397.261; -289.529
434.036; -108.636; -275.242; -280.564
434.324; -127.943; -395.249; -379.551
434.613;   79.563;   40.757;  159.437
434.902;   46.966;  333.760;  439.433
435.190;   31.667;   75.761;  295.431
435.479;  -32.739;  -52.245;   83.441
435.767; -134.138; -411.244; -427.561
436.056; -123.036; -340.242; -294.563
436.345; -114.434; -372.240; -223.568
436.633;   41.157;   60.750;  383.450
436.922;   49.666;  208.760;  414.432
437.210;  -74.531; -194.236;    1.426
437.499; -195.030; -583.235; -432.576
437.787;  -67.331; -339.236;  -10.574
438.075;   -2.833;   56.761;  162.430
438.364;  -15.132;  -44.238;  250.429
438.652;  -68.221; -286.226; -138.592
438.941;  -10.825;    3.770;  269.415
439.229; -179.446; -665.252; -466.545
439.517;  -67.529; -160.234;  -85.577
439.806; -171.119; -501.225; -290.595
440.094;  121.272;  377.766;  650.421
440.382; -167.127; -653.233; -302.580
440.670; -119.630; -361.235; -285.576
440.959; -111.117; -347.223; -170.599
441.247;  -58.323; -151.229; -109.587
441.535;  -60.629; -266.235;   31.423
441.823; -165.428; -497.234; -305.578
442.111;   25.877;  173.771;  327.412
442.400; -170.439; -628.245; -335.559
442.688;  -64.128; -111.234; -620.579
442.976; -259.807; -786.213; -450.617
443.264; -143.318; -324.224; -364.597
443.552;  -62.421; -258.226;   51.408
443.840;  189.171;  602.765;  876.423
444.128;   87.873;  265.767;  269.420
444.416; -186.923; -694.228; -312.588
444.704; -111.214; -465.219;  -92.605
444.992;  -41.920;   -0.226;  240.407
445.280;  -92.525; -517.230;  -94.585
445.568; -201.907; -694.212; -396.618
445.856;  -59.416; -174.221;  357.398
446.143;  -44.114;  -54.220;   -7.604
446.431;   35.778;  -25.228;  625.411
446.719;  104.388;  489.783;  675.391
447.007;  126.175;  481.769;  705.416
447.295;  127.183;  597.777;  871.402
447.583;  -96.324; -464.229;  -34.587
447.870; -145.216; -434.221; -202.601
448.158;  -40.225; -104.230;  129.415
448.446; -206.614; -800.219; -338.604
448.733;  -47.518;   13.776;  269.403
449.021;   19.693;   60.788;  341.382
449.309;  -55.805; -296.210;  208.379
449.596;   49.088;  128.783;   59.392
449.884; -169.817; -571.222; -325.600
450.172; -216.022; -756.227; -406.590
450.459;  138.291;  645.786;  780.387
450.747; -122.712; -411.218; -147.608
451.034;  176.478;  493.772;  889.411
451.322; -129.409; -413.214; -170.614
451.609;   65.682;  292.777;  508.403
451.897; -189.498; -550.203; -183.634
452.184; -205.217; -622.223; -400.598
452.472;   15.797;   97.792;  269.375
452.759;  141.986;  512.781;  864.395
453.047; -131.007; -407.212; -125.617
453.334; -188.613; -732.219; -216.606
453.621; -154.409; -438.214; -161.615
453.909;   13.001;   13.796;  384.368
454.196;  -98.594; -299.199; -123.641
454.483;   46.303;  317.798;  540.364
454.771;  -42.703; -215.208;  196.374
455.058;  -61.602; -316.207;  102.374
455.345;   27.112;   71.807;  344.347
455.632;  -64.902; -128.207;  235.373
455.919;  -30.192;  -82.196;  182.354
456.207; -243.994; -774.198; -450.642
456.494; -148.595; -475.200;  -66.639
456.781; -133.697; -399.202; -198.635
457.068;  -70.701; -253.206;  -29.628
457.355; -189.601; -698.206; -401.629
457.642; -152.100; -552.205; -290.630
457.929; -200.489; -778.194; -417.651
458.216; -160.607; -575.212; -354.617
458.503;  -54.888; -173.193;  -19.652
458.790; -242.303; -864.208; -630.625
459.077;  -42.197;  -77.202;  110.364
459.364; -145.390; -350.195; -210.649
459.651;   27.299;  -46.206;  220.372
459.938; -241.004; -864.209; -665.623
460.225;    0.504;  132.799;  276.363
460.512; -270.392; -836.197; -688.645
460.799;   10.788;  -32.218;  320.392
461.086; -118.895; -370.200; -251.640
461.372; -156.694; -509.198; -279.642
461.659;    4.209; -165.196;  108.354
461.946;  -95.689; -445.193;  -54.651
462.233;  220.205;  842.800;  888.361
462.519; -244.796; -814.201; -464.639
462.806; -224.492; -768.197; -497.645
463.093; -131.786; -445.191;  -66.656
463.380; -258.282; -920.186; -824.664
463.666;  -56.292; -259.197;  -18.646
463.953;  -84.190; -406.195; -243.648
464.239;  -87.890; -173.195;  -77.648
464.526;  108.811;  413.806;  743.350
464.813; -165.085; -565.190; -304.658
465.099;  125.012;  606.807;  607.348
465.386;  223.112;  903.807;  921.348
465.672; -210.692; -694.197; -522.645
465.959; -188.283; -598.188; -520.662
466.245; -163.788; -468.193; -359.652
466.532;  -31.391; -109.195;   63.352
466.818; -108.482; -357.186; -216.664
467.104; -165.477; -488.182; -415.672
467.391; -156.385; -628.189; -459.658
467.677; -102.181; -289.186;    9.335
467.964; -214.784; -682.189; -471.660
468.250; -123.881; -331.186; -160.665
468.536;  -25.485;   90.811;  180.341
468.822; -225.480; -821.184; -574.668
469.109;  120.832;  351.827;  471.311
469.395;  182.313;  729.808;  787.346
469.681;   -1.484;   46.811;  156.341
469.967; -186.084; -699.188; -382.660
470.254; -109.183; -494.188; -306.662
470.540; -158.292; -601.196; -476.646
470.826; -129.076; -488.181; -397.675
471.112;   39.821;  288.816;  113.331
471.398;  -33.279; -253.183;  -58.670
471.684; -154.573; -626.177; -447.680
471.970; -285.976; -918.180; -981.675
472.256; -138.587; -521.192; -441.654
472.542; -165.667; -499.171; -434.691
472.828; -209.778; -743.182; -607.672
473.114; -118.562; -380.166; -283.700
473.400; -154.571; -504.175; -293.684
473.686; -124.162; -452.166; -400.701
473.972;  -25.769; -230.174; -131.687
474.258; -264.068; -925.173; -843.689
474.544;  -44.774; -183.178;   -2.679
474.830;  -18.271;  -65.175;   45.316
475.116;  -92.785; -123.190; -196.658
475.401; -186.275; -558.180; -467.676
475.687; -229.875; -725.180; -718.676
475.973; -197.177; -673.181; -770.673
476.259;  181.629;  736.825;  764.315
476.544; -158.672; -539.176; -437.682
476.830; -158.668; -398.172; -322.690
477.116; -129.772; -430.177; -336.682
477.401;  112.725;  346.820;  358.324
477.687; -105.971; -289.175; -405.684
477.973;  -23.176;   21.819;   28.326
478.258; -113.159; -448.163; -348.706
478.544;  -20.980;   21.815;   61.334
478.829; -214.466; -818.171; -738.692
479.115; -181.468; -749.172; -651.690
479.401; -111.170; -444.174; -449.686
479.686;  -55.576; -253.180;  -74.676
479.972; -238.373; -886.178; -776.680
480.257;  -70.262; -258.166;  -65.700
480.542; -191.466; -614.170; -469.693
480.828;  385.329; 1288.824; 1392.317
481.113; -149.871; -464.176; -426.683
481.399;  -67.757; -236.161; -202.711
481.684; -185.462; -620.166; -462.700
481.969;  -20.855; -158.159;  -73.713
482.255; -119.165; -439.169; -285.695
482.540; -164.373; -569.178; -441.680
482.825; -163.182; -395.187; -404.663
483.110;  -33.964;  -85.169; -105.696
483.396; -202.953; -840.157; -652.718
483.681;  150.731;  543.826;  730.313
483.966; -212.456; -696.160; -700.712
484.251; -137.670; -404.174; -310.687
484.536; -125.261; -356.165; -378.703
484.822; -123.869; -205.173; -218.687
485.107; -140.449; -599.152; -502.726
485.392;  181.840;  662.836;  541.296
485.677;   47.037;  354.832;  163.302
485.962;   66.847;  160.843;  270.283
486.247;    3.542;  -14.162;   -8.707
486.532;  -71.962; -178.166; -325.701
486.817;   88.343;  381.839;  431.291
487.102; -164.950; -453.154; -514.722
487.387; -192.153; -637.156; -652.718
487.672;  -43.560; -154.164;  -38.705
487.957;  -66.356; -394.160; -286.711
488.241;  -97.847; -290.150; -314.729
488.526;  -85.148; -280.152; -148.726
488.811; -278.173; -881.177; -818.680
489.096; -221.650; -666.154; -702.723
489.381;   -8.849;    3.847;  162.275
489.666; -107.757; -428.161; -510.710
489.950;  148.050;  558.846;  627.277
490.235; -184.647; -480.151; -458.728
490.520; -220.757; -756.161; -723.710
490.804; -261.752; -827.156; -736.719
491.089; -141.645; -469.149; -299.732
491.374;  -41.360; -132.164;  -75.704
491.658; -225.944; -817.147; -717.735
491.943; -177.848; -657.152; -609.727
492.227;  -78.151; -178.155;  -38.721
492.512; -117.653; -294.157; -341.717
492.797; -208.446; -713.149; -716.731
493.081; -216.243; -588.147; -598.735
493.366; -203.757; -751.161; -635.711
493.650;  230.063;  831.859;  917.254
493.935; -155.144; -648.147; -447.734
494.219; -201.339; -778.142; -687.743
494.503; -190.546; -585.150; -487.730
494.788;   12.846;   46.842;   74.285
495.072;   87.553;  184.850;  434.271
495.356; -158.345; -463.148; -343.733
495.641; -235.343; -812.146; -736.736
495.925; -284.752; -976.156; -903.719
496.209; -158.945; -599.149; -451.732
496.494; -181.739; -763.142; -544.744
496.778;  -87.050; -364.154; -360.722
497.062; -232.952; -819.156; -627.719
497.346; -229.456; -869.160; -640.711
497.631;  149.656;  580.852;  560.266
497.915;    0.559;  -64.145;  175.261
498.199; -109.353; -341.157; -277.718
498.483; -149.449; -562.152; -508.725
498.767;   68.354;  301.850;  300.271
499.051;  -34.845; -126.149; -100.732
499.335; -236.845; -693.149; -739.731
499.619; -159.726; -381.129; -423.767
499.903;  -62.451; -272.155;  -65.721
500.187; -114.350; -588.153; -316.724
500.471; -285.748; -796.152; -595.727
500.755;  -28.057;   62.839;  -96.710
501.039;  -81.751; -270.155; -357.721
501.323;   23.863;  -21.141;  264.254
501.607; -144.159; -447.163; -503.706
501.891; -162.853; -607.156; -512.718
502.174; -197.640; -726.144; -585.741
502.458;   31.552;   89.849;  370.273
502.742;  -44.935; -180.138; -191.751
503.026; -109.544; -412.147; -254.734
503.310; -140.155; -437.159; -375.713
503.593;  -87.144; -464.147; -325.735
503.877;  -77.030; -232.133; -156.760
504.161;  -49.349;    2.847;  -50.724
504.444; -232.454; -841.158; -710.716
504.728; -179.160; -487.164; -522.704
505.012;  -36.947; -257.150;  -76.729
505.295;  -91.957; -417.161; -212.711
505.579; -106.752; -256.156; -496.719
505.862; -148.742; -555.145; -333.738
506.146; -223.555; -681.159; -758.714
506.429;  129.445;  568.841;  461.286
506.713; -208.147; -732.151; -667.728
506.996;    6.350;   90.846;  295.278
507.280; -186.961; -633.165; -474.703
507.563; -160.451; -469.155; -261.721
507.847; -130.850; -423.153; -112.724
508.130; -174.957; -665.161; -456.711
508.413; -184.863; -758.167; -577.700
508.697;  -29.563; -151.167;   12.300
508.980; -146.649; -422.153; -312.724
509.263; -114.752; -466.155; -450.720
509.547;  -67.647; -124.150;   82.271
509.830;  -45.256; -172.160;  140.289
510.113;   43.948;  128.844;  298.281
510.396; -134.849; -530.152; -300.725
510.680; -241.842; -818.145; -812.738
510.963;   24.850;  184.846;  180.277
511.246; -156.546; -493.150; -357.730
511.529;  -87.941; -482.145;  -83.739
511.812;  -29.930; -250.134;   10.241
512.095; -171.247; -740.151; -396.728
512.378;  -98.343; -317.147; -245.736
512.661; -219.834; -703.137; -623.753
512.944; -236.539; -750.142; -637.744
513.227;  -78.334; -170.137; -171.752
513.510; -147.340; -479.144; -671.741
513.793; -175.737; -485.140; -435.747
514.076;  -40.524;  -43.127;  -39.771
514.359;  -96.045; -294.149; -135.732
514.642; -171.738; -442.142; -567.744
514.925;  120.463;  581.860;  561.253
515.208; -150.831; -498.134; -443.758
515.491;  -76.929; -276.133; -182.761
515.773; -168.040; -410.143; -337.742
516.056;   68.167;  249.864;  409.246
516.339; -232.833; -754.136; -652.755
516.622; -178.446; -518.150; -488.730
516.904;  251.861;  882.857;  975.257
517.187; -196.134; -730.138; -523.752
517.470; -188.639; -568.143; -510.743
517.752; -176.732; -624.136; -470.756
518.035; -212.336; -708.139; -725.749
518.318; -269.533; -799.136; -744.755
518.600; -123.529; -300.132; -325.762
518.883;   40.862;  310.858;   88.256
519.165; -174.035; -585.138; -426.751
519.448;  -20.429;  -61.132;  -19.762
519.730; -206.823; -573.126; -415.773
520.013;  159.170;  588.867;  664.240
520.295;  -43.930;  -94.134;  -15.759
520.578;  -89.128; -335.131; -305.764
520.860;  -79.129; -254.132;   56.238
521.143; -212.032; -763.135; -584.756
521.425; -108.322; -251.125; -279.775
521.707; -172.024; -622.127; -380.771
521.990;  -29.224; -199.127;  167.229
522.272;  -46.837; -116.140;   -4.748
522.554; -107.840; -237.143; -157.742
522.836;  -32.831;  -24.134;   99.241
523.119; -149.844; -496.148; -189.734
523.401; -152.327; -448.130; -314.766
523.683; -255.734; -865.137; -693.753
523.965;   24.166;  408.862;  260.248
524.247;  -43.519;   54.878;  170.220
524.529; -157.930; -451.134; -367.759
524.812;  -22.327;   -3.130;  191.234
525.094; -261.634; -773.138; -631.751
525.376;  -58.621; -143.124;   78.223
525.658; -137.533; -441.136; -339.754
525.940; -226.228; -805.131; -671.764
526.222; -115.232; -188.136;  -88.755
526.504;  -50.228; -190.131;   32.237
526.786; -252.530; -960.133; -647.760
527.068; -122.820; -124.123;  -67.778
527.349; -298.133; -865.137; -774.754
527.631;  -47.329; -137.132;   22.238
527.913; -196.324; -664.127; -450.771
528.195; -249.522; -761.125; -639.774
528.477;  -33.531;  -93.134;  -30.758
528.759; -201.927; -648.130; -522.766
529.040; -161.620; -569.123; -293.778
529.322;  -75.322; -235.125;  -10.774
529.604;  -59.726;  -47.130;   93.233
529.886; -139.823; -546.126; -302.773
530.167;   30.373;  232.870;  192.235
530.449;  -32.143;    1.853;   63.265
530.731; -176.419; -572.122; -459.779
531.012; -143.817; -513.120; -216.784
531.294;  -41.713; -118.116;  -43.792
531.575;   73.778;  290.875;  538.225
531.857; -154.631; -548.135; -266.757
532.138;  -23.537; -113.141;   40.254
532.420;   34.168;  294.865;  403.244
532.701; -254.630; -722.133; -751.760
532.983;   55.271;  232.867;  182.239
533.264;  -38.323; -243.126;  175.228
533.546; -156.933; -491.136; -508.755
533.827;  -33.930;  173.867;   -1.759
534.109; -138.931; -352.135;  -80.757
534.390; -227.329; -725.132; -582.762
534.671;  -87.232; -270.135;  -82.756
534.953; -251.920; -751.123; -611.779
535.234; -148.914; -426.117; -255.789
535.515; -284.916; -891.119; -735.785
535.796; -115.424; -431.128; -193.770
536.078; -311.321;-1050.124; -904.777
536.359;  -43.720;  -22.123;    3.221
536.640; -161.322; -480.125; -197.774
536.921;   25.974;  225.871;  143.232
537.202;  -75.135;  -87.138;  -16.751
537.483;   32.172;  251.869;  377.236
537.764;   -2.927;   17.870;   98.235
538.045; -177.031; -543.134; -371.758
538.326; -184.526; -596.129; -447.768
538.607; -227.824; -686.127; -476.771
538.888;  -82.718;   98.879;    5.218
539.169; -218.019; -704.122; -535.781
539.450;   -0.226;  236.871;   16.233
539.731; -121.918; -361.121; -182.783
540.012;   -9.517;  199.880;  412.216
540.293;  -42.021;   82.876;  158.224
540.574; -275.710; -895.113; -717.796
540.855;   52.882;  435.879;  377.218
541.136;   -1.519;   47.878;  139.220
541.416; -102.227; -161.130; -220.766
541.697; -129.028; -274.131; -170.763
541.978; -125.532; -270.135; -315.757
542.259; -150.924; -211.127; -236.771
542.539; -117.413; -191.116; -186.790
542.820;   31.778;  461.875;  480.225
543.101;  -85.541;  -52.145;  -77.738
543.381; -266.724; -638.127; -591.771
543.662;  -41.724;  159.873; -254.771
543.942; -294.824; -751.127; -830.770
544.223;   -2.519;  193.878;  161.219
544.504; -132.421; -275.124; -182.777
544.784; -208.123; -592.126; -408.773
545.065; -118.813;  104.884; -254.791
545.345;  -59.916;  227.881;   14.215
545.626;  -23.910;  -14.113; -108.796
545.906;  -31.627;   77.869;   98.235
546.186; -129.623;   92.874;  -95.773
546.467;  -66.820;   99.877;  -95.778
546.747;   34.687;  264.884;  327.210
547.027;  -35.621;   91.876;  111.223
547.308; -208.424; -376.127; -530.770
547.588;   29.875;  299.871;  371.232
547.868;  125.973;  458.870;  588.235
548.149;  155.588;  609.885;  593.207
548.429; -116.824; -347.127; -299.771
548.709; -216.417; -645.120; -461.784
548.989;  -36.815;   84.882;   88.213
549.269; -133.029;   10.868;  139.239
549.550;  -30.620;  215.877;  117.222
549.830; -214.308; -758.111; -556.799
550.110; -177.208; -468.110; -320.801
550.390; -105.619; -128.122;  -56.779
550.670; -288.611; -868.114; -783.795
550.950; -202.918; -509.121; -471.782
551.230;   93.582;  549.879;  460.218
551.510; -153.318; -381.121; -326.782
551.790;  -62.707; -173.109; -127.803
552.070;  285.980;  940.877; 1181.223
552.350; -148.416; -492.119; -377.786
552.630;    9.482;   -2.121;   77.219
552.909;   -1.213;  181.884;   73.209
553.189;  -65.428;  -49.132;   33.237
553.469; -208.916; -703.119; -514.786
553.749; -163.624; -469.127; -357.772
554.029;  -43.714;   33.883;  -24.790
554.308;  -78.412; -154.115;  -37.794
554.588; -126.624; -196.128; -204.770
554.868; -121.018; -366.121;  -47.782
555.147; -114.312; -114.115;  -46.793
555.427; -164.413; -260.116; -250.792
555.707; -101.912; -284.115; -200.793
555.986; -215.108; -719.111; -538.800
556.266;  -42.714;   23.884;   72.210
556.546; -232.618; -888.121; -675.782
556.825; -234.411; -657.114; -556.794
557.105;  -74.525; -125.128;   17.230
557.384;    0.887;  122.884;  187.209
557.664; -249.913; -717.116; -508.792
557.943; -177.318; -557.121; -411.782
558.222; -156.415; -345.118; -344.788
558.502;  -93.212; -116.115;  -76.793
558.781;   69.788;  194.885;  499.208
559.061; -111.115; -232.118; -227.788
559.340;   31.586;  302.883;  353.211
559.619;  -11.114;   93.884;  148.210
559.899; -126.614; -239.117; -266.789
560.178; -239.612; -778.115; -593.793
560.457; -249.514; -623.117; -562.790
560.736; -196.508; -472.111; -482.800
561.015; -205.325; -500.128; -502.769
561.295;  -35.405;  180.893;  215.193
561.574;  -24.012;  119.885;  116.207
561.853;   25.794;  274.891;  303.197
562.132;  -67.812;  -45.114;  182.206
562.411;  102.982;  396.879;  553.219
562.690; -219.112; -592.115; -458.792
562.969;  105.590;  472.888;  630.203
563.248;  722.181; 2966.878; 2487.219
563.527; -152.008; -290.111; -408.800
563.806; -214.324; -650.127; -521.771
564.085; -120.103; -297.105; -206.810
564.364; -180.714; -594.117; -405.790
564.643; -126.018; -276.121; -223.781
564.922;   25.493;  221.890;  397.198
565.201; -251.407; -640.109; -700.803
565.479; -127.213; -297.115; -219.792
565.758; -275.825; -810.128; -712.770
566.037; -114.306; -155.109; -100.803
566.316;  -81.313; -286.116;  -28.791
566.595;  -69.812;  -17.115;  -12.793
566.873;   91.192; -166.111;  -79.801
567.152; -199.710; -490.113; -590.797
567.431;  -89.613; -113.116;    6.210
567.709; -117.905; -344.107; -212.807
567.988; -280.811; -810.114; -769.794
568.266;  -89.012; -160.115;  -68.793
568.545; -197.498; -644.100; -514.819
568.824;   18.287;  160.885;  356.208
569.102; -158.511; -351.114; -235.794
569.381; -174.613; -492.116; -407.792
569.659; -212.010; -553.113; -553.796
569.938; -229.719; -743.122; -465.780
570.216;  -93.206; -225.109; -225.804
570.494; -246.311; -632.114; -572.795
570.773;   45.382;  202.879;  114.218
571.051; -136.220; -373.123; -357.778
571.330;  -99.610; -221.113; -174.796
571.608;  -86.196; -181.098; -173.823
571.886; -267.209; -671.111; -581.799
572.164; -230.918; -739.121; -621.782
572.443; -196.202; -562.105; -512.811
572.721; -131.014; -399.117; -289.790
572.999; -129.414; -280.117; -168.788
573.277;   87.597;  379.894;  620.191
573.555;  -55.103;   94.894;   37.190
573.834;  -98.315;  -86.117; -114.788
574.112;  205.396;  880.893;  811.193
574.390;  -62.808; -143.111;  -96.801
574.668; -121.910;  -91.112;  -61.797
574.946; -101.303; -165.106; -187.810
575.224;  -79.007;   71.891;  -16.803
575.502;  -90.713; -200.116; -204.791
575.780; -224.810; -767.112; -829.798
576.058;  443.592; 1589.889; 1004.200
576.336; -111.507; -210.110; -129.801
576.614; -162.109; -511.112; -340.798
576.891; -226.612; -711.115; -823.794
577.169; -127.805; -158.108; -285.805
577.447;   47.396;  169.893;  202.193
577.725;  159.591;  629.888;  854.201
578.003; -109.909;  -71.112; -371.798
578.280;  -85.302; -208.104; -242.812
578.558; -212.912; -450.115; -422.793
578.836;  -81.211; -210.114; -145.795
579.114; -212.610; -630.112; -670.797
579.391;  -54.014;   -6.117;  -18.789
579.669; -242.812; -595.114; -704.794
579.947; -105.905; -326.107; -127.806
580.224; -210.905; -692.107; -524.806
580.502;  -24.304;  127.893;   76.193
580.779;  -55.714;  -42.117;   75.210
581.057; -197.306; -584.109; -470.804
581.334; -250.700; -726.102; -695.815
581.612;   26.597;   54.895;  511.190
581.889;  -92.598;  -83.101; -129.818
582.167; -128.397; -298.099; -190.821
582.444; -254.699; -845.102; -814.817
582.721;  164.101;  657.899;  715.183
582.999;  -81.897; -326.100; -167.821
583.276; -218.120; -812.123; -713.779
583.553; -141.599; -364.102; -294.816
583.831; -225.802; -607.104; -631.812
584.108;   42.794;  349.892;  174.195
584.385;  -81.900; -122.102;  -98.815
584.662; -226.408; -651.111; -828.801
584.940;   15.092;  204.889;  204.199
585.217; -107.010;  -73.113; -303.796
585.494;  -35.307;   71.890;  118.198
585.771; -141.906; -250.109; -354.804
586.048;  -91.910; -196.113;  -76.796
586.325; -224.608; -721.110; -773.801
586.602;   21.299;  230.896;  213.188
586.879; -182.097; -499.100; -580.820
587.156;  -78.403; -156.105; -331.810
587.433; -247.499; -701.102; -667.817
587.710;  -36.909;  152.888;  234.202
587.987; -124.402; -264.105; -236.811
588.264;   35.691;  315.888;  387.202
588.541;  -56.801;  -61.104;   26.187
588.818;  -54.306;   72.892;  171.196
589.095;  -93.802; -163.104; -174.812
589.371; -169.006; -459.109; -414.804
589.648; -192.204; -581.107; -437.807
589.925; -186.711; -517.114; -621.795
590.202; -227.009; -741.112; -607.798
590.478;  -61.702; -166.105;  -73.811
590.755; -105.505; -241.108; -132.806
591.032; -192.907; -741.110; -699.802
591.308; -235.391; -732.094; -790.831
591.585; -192.107; -573.110; -560.802
591.862; -307.899;-1056.102; -950.817
592.138; -163.705; -475.108; -474.805
592.415; -185.001; -486.104; -495.813
592.691;   93.398;  460.896;  518.188
592.968; -123.295; -208.098; -123.824
593.244; -228.813; -695.116; -595.790
593.521;  -87.299; -105.102;  -42.817
593.797; -266.019; -810.122; -720.780
594.074; -222.094; -611.096; -588.826
594.350;  171.607;  828.905;  729.172
594.626; -112.408; -303.111; -283.801
594.903; -199.699; -643.101; -645.817
595.179;   56.799;  243.896;  418.187
595.455; -107.804; -136.107; -150.807
595.731;  -89.601;  -19.103;  -38.814
596.008; -173.708; -464.111; -434.800
596.284; -101.697; -187.100; -242.820
596.560; -170.691; -501.093; -493.833
596.836; -108.303; -173.105;  -70.810
597.112; -182.105; -582.108; -437.805
597.388;  -79.794;  -49.097;  -48.826
597.665;   72.790;  437.887;  530.203
597.941; -242.487; -572.089; -658.839
598.217; -139.907; -323.110; -293.802
598.493; -102.606;   61.891; -204.804
598.769;  -98.098; -175.100;  -50.819
599.045; -201.505; -490.108; -562.806
599.321; -125.797; -193.100; -261.820
599.597; -177.006; -355.109; -476.804
599.872;   73.299;  409.896;  429.187
600.148;  -64.994;  -61.097; -172.826
600.424;   11.896;   91.893;  202.193
600.700; -102.704; -170.107; -280.807
600.976; -151.395; -442.097; -464.825
601.252;  -99.306; -226.109; -272.803
601.527; -300.401; -833.104; -840.813
601.803; -163.402; -453.105; -404.812
602.079;  -91.498; -124.100; -118.819
602.354; -169.389; -620.092; -531.835
602.630;  -87.710; -140.113; -482.796
602.906; -264.098; -910.101; -863.818
603.181; -201.416; -627.119; -534.786
603.457;  -78.794;   98.903; -278.826
603.733; -210.718; -605.120; -626.783
604.008; -114.303; -245.106; -164.810
604.284; -191.299; -636.101; -580.817
604.559;  -45.709;   -3.112;  -42.799
604.835; -134.603; -163.105; -225.810
605.110; -261.897; -732.099; -892.821
605.385;   62.410;  224.907;  267.167
605.661; -239.193; -625.095; -729.829
605.936; -251.005; -664.108; -737.806
606.211;  -63.300;  -17.103; -170.815
606.487; -109.311; -329.114; -376.794
606.762; -259.516; -791.119; -745.786
607.037; -180.803; -501.105; -433.810
607.313; -200.093; -589.096; -574.828
607.588;  -76.103; -375.106; -137.810
607.863;  -64.298;  -28.101; -143.818
608.138;  105.593;  513.890;  516.198
608.413; -200.096; -576.099; -592.822
608.688; -149.705; -203.108; -267.805
608.964; -120.704; -509.106; -218.809
609.239;  -80.803; -107.105; -212.810
609.514;   -6.602;  281.895;  240.188
609.789; -249.201; -187.104; -716.812
610.064; -192.793; -435.096; -609.827
610.339; -275.306; -855.109; -799.804
610.614; -113.497; -131.100; -315.820
610.889;  -28.502;  215.895;  107.188
611.163; -192.102; -407.104; -591.812
611.438; -109.511;   81.886; -167.794
611.713; -204.699; -467.101; -499.817
611.988; -110.899; -144.101; -328.818
612.263; -279.200; -771.102; -717.815
612.538;   56.890;  385.887;  251.204
612.812; -278.197; -832.100; -911.820
613.087; -145.696; -358.098; -338.823
613.362; -206.104; -497.107; -557.807
613.637;   27.600;  261.897;  138.186
613.911; -106.789; -256.092; -345.835
614.186; -124.304; -249.107; -292.807
614.460; -294.079; -842.081; -758.854
614.735;  -22.985;  -55.087;  -17.843
615.010;  -44.786;   43.912;  -82.841
615.284;   50.895;  360.892;  246.195
615.559; -280.390; -792.092; -955.835
615.833;  -54.897;  -76.099;  -87.822
616.108; -113.488; -225.090; -390.837
616.382;   64.515;  274.913;  402.156
616.656; -112.188; -241.090; -232.837
616.931; -270.896; -785.099; -700.822
617.205; -316.101; -973.104; -979.813
617.480;  -35.822;  -91.125;    6.225
617.754; -119.322; -396.125; -128.774
618.028; -147.425; -369.129; -382.768
618.302;  -31.206;   73.892;  -25.805
618.577; -184.200; -371.103; -518.815
618.851; -195.807; -399.109; -600.803
619.125; -127.930; -335.134; -378.759
619.399;  -90.501; -244.104; -374.813
619.673; -157.813; -330.115; -515.792
619.947; -147.011; -333.114; -448.795
620.222; -118.408; -198.110; -204.801
620.496;  -87.418;  -47.121;  -96.782
620.770;  -73.419; -187.122;  -93.781
621.044;   43.597;  323.895;  346.190
621.318; -244.017; -653.120; -614.783
621.592; -150.518; -430.121; -409.783
621.866; -161.309; -476.112; -572.799
622.140; -112.113; -207.116; -356.791
622.413;   33.292;  138.889;  112.200
622.687; -220.199; -746.101; -492.817
622.961;  -49.206; -130.108; -143.805
623.235; -230.508; -633.111; -661.800
623.509; -275.202; -816.105; -848.811
623.783;  -10.505;  -12.107;   48.193
624.056;  -93.717; -254.120; -280.783
624.330;   10.490;   63.888;   -3.797
624.604; -109.914; -271.116; -355.790
624.877;   -2.307;  180.890;   26.198
625.151;  -96.712; -249.114; -238.794
625.425; -113.401; -150.103; -283.814
625.698; -149.816; -367.119; -374.785
625.972; -238.007; -799.110; -765.802
626.245;  123.487;  685.884;  484.210
626.519; -134.717; -426.120; -340.784
626.792;  -98.404; -192.107; -380.807
627.066; -201.319; -485.122; -662.779
627.339; -206.407; -736.110; -663.802
627.613;   56.583;  351.880;  148.216
627.886;   27.093;  187.891; -612.803
628.160; -101.017;  312.880; -161.783
628.433; -228.222; -695.125; -703.775
628.706; -160.417; -517.120; -615.784
628.979;   28.879;  296.876;  117.223
629.253; -291.716; -785.119; -833.786
629.526; -135.823; -334.126; -253.772
629.799; -193.020; -641.123; -479.778
630.072; -163.225; -497.128; -516.769
630.346; -337.613;-1115.116;-1080.790
630.619; -157.004; -467.107; -545.808
630.892;  149.292;  709.889;  593.200
631.165;  182.799;  790.896;  679.187
631.438; -346.209;-1092.112;-1055.798
631.711;   56.080;  453.877;  257.221
631.984; -178.614; -523.117; -624.789
632.257; -191.314; -636.117; -681.789
632.530; -124.816; -412.119; -433.785
632.803;   69.388; -109.115;    7.207
633.076; -133.120; -360.123; -422.777
633.349;   -5.925;  173.872;  121.231
633.622;  -81.116; -187.119; -240.785
633.895; -274.417; -903.120; -823.783
634.167; -182.723; -496.126; -525.773
634.440;  -31.613;  -19.116; -137.792
634.713;  -38.016;  -22.119; -120.786
634.986;  141.674;  593.871;  453.233
635.258; -199.612; -507.115; -597.793
635.531;  171.585;  742.882; -343.788
635.804; -123.414; -303.117; -318.789
636.077; -267.913; -830.116; -852.791
636.349; -184.512; -586.115; -474.793
636.622;  525.177; 1695.874; 1392.228
636.894; -136.017; -474.120; -909.784
637.167; -244.224; -836.127; -789.771
637.439;  -73.124; -278.128; -213.770
637.712; -115.623; -312.126; -293.772
637.984; -206.713; -635.116; -707.791
638.257;  153.680;  515.877;  488.222
638.529; -289.621; -881.125; -924.776
638.802; -200.025; -508.128; -449.769
639.074; -299.719; -927.122; -952.781
639.346; -300.131; -942.135; -930.757
639.619;  -24.238;  -79.142; -319.744
639.891;  -68.119;  -83.122; -168.779
640.163; -243.119; -689.122; -756.780
640.435;   41.081;  273.878;  103.220
640.708;  -33.919;  -72.122; -132.780
640.980; -134.619; -366.122; -362.781
641.252;  -60.918;  -25.121;  -71.781
641.524;  143.582;  580.879;  573.219
641.796; -307.618;-1094.121; -907.782
642.068; -105.718; -191.121; -300.782
642.340; -149.618; -486.121; -566.783
642.613;   43.183;  294.880;  323.217
642.885; -254.017; -787.120; -878.783
643.157; -231.517; -810.120; -658.784
643.428;   64.983;  170.880;  218.216
643.700; -157.017; -498.120; -425.784
643.972;  -68.216;  -16.119; -133.785
644.244; -190.216; -474.119; -559.785
644.516;  -94.916; -250.119; -114.786
644.788;  140.484;  662.881;  548.214
645.060;  -26.316;  -12.119; -124.786
645.332; -181.315; -525.118; -535.787
645.603;  102.285;  479.882;  342.213
645.875; -141.615; -334.118; -369.787
646.147;  337.085; 1487.882; 1242.212
646.418; -314.315; -931.117; -918.788
646.690; -237.914; -714.117; -715.789
646.962; -132.914; -413.117; -451.789
647.233;   21.086;   15.883;   11.211
647.505; -213.114; -595.117; -475.790
647.776;   60.086;  328.884;  229.210
648.048; -108.013; -248.116; -418.790
648.320; -230.913; -752.116; -679.791
648.591; -313.613;-1055.116; -958.791
648.862; -163.013; -505.116; -577.792
649.134;   26.887;  115.885;  198.208
649.405; -180.712; -661.115; -618.792
649.677; -206.212; -475.115; -598.793
649.948;  -75.012; -181.115; -296.793
650.219;  -25.212;  -37.115; -147.793
650.491; -147.012; -431.114; -520.794
650.762; -225.511; -705.114; -731.794
651.033; -174.611; -437.114; -424.795
651.304; -266.211; -743.114; -728.795
651.576; -221.511; -680.114; -645.795
651.847;  -69.511; -250.113; -140.796
652.118;  -15.510;  -32.113; -189.796
652.389; -192.210; -639.113; -722.796
652.660;  -54.610; -147.113;  -89.797
652.931; -314.410; -897.112; -871.797
653.202; -171.310; -382.112; -541.798
653.473; -161.609; -633.112; -533.798
653.744; -167.509; -595.112; -590.798
654.015; -135.909; -356.112; -303.799
654.286; -192.709; -642.111; -663.799
654.557; -200.709; -586.111; -521.799
654.828; -334.708;-1114.111;-1088.800
655.099; -112.208; -404.111; -291.800
655.370; -173.808; -427.111; -543.801
655.641; -217.808; -656.110; -714.801
655.911; -186.207; -618.110; -638.801
656.182;  109.693;  437.890;  387.198
656.453;  218.093;  830.890;  746.198
656.724; -145.707; -466.110; -426.802
656.994; -173.707; -553.109; -568.803
657.265; -256.006; -862.109; -873.803
657.536; -144.306; -500.109; -377.804
657.806; -173.906; -561.109; -593.804
658.077; -274.606; -866.109; -950.804
658.347; -143.906; -523.108; -598.805
658.618; -228.805; -646.108; -694.805
658.888;  -46.505;  -41.108;  112.195
659.159; -163.005; -432.108; -548.806
659.429; -134.205; -292.108; -349.806
659.700; -128.605; -435.107; -390.807
659.970; -134.604; -370.107; -359.807
660.241; -266.604; -754.107; -921.807
660.511;  -48.804; -147.107; -174.808
660.781; -232.304; -793.106; -748.808
661.052; -119.104; -222.106; -381.808
661.322;  -42.003;   21.894;   -9.809
661.592;   55.697;  257.894;  148.191
661.862; -173.903; -369.106; -382.810
662.133; -190.903; -551.105; -502.810
662.403; -247.203; -770.105; -676.810
662.673;  -88.302; -256.105; -213.811
662.943; -205.102; -612.105; -551.811
663.213;  -30.902;  -85.105;  -81.811
663.483; -203.302; -593.104; -568.812
663.753;  -88.002; -194.104; -152.812
664.023;   25.899;   68.896;  -32.813
664.293; -124.201; -319.104; -126.813
664.563; -211.801; -694.104; -648.813
664.833; -221.301; -743.103; -608.814
665.103; -251.801; -730.103; -793.814
665.373; -250.200; -766.103; -806.814
665.643; -268.800; -863.103; -918.815
665.913; -218.000; -534.103; -714.815
666.182; -225.900; -685.102; -719.816
666.452;  -66.000;  -22.102;  -89.816
666.722; -273.799; -724.102; -784.816
666.992; -300.099; -948.102; -921.817
667.261; -258.099; -824.102; -808.817
667.531;   -7.599;  134.899;   45.183
667.801; -115.299; -440.101; -412.818
668.070;  183.902;  714.899;  697.182
668.340; -282.398; -883.101; -840.819
668.609;  107.202;  588.900;  301.181
668.879; -175.298; -490.100; -558.819
669.149; -181.498; -539.100; -516.820
669.418; -202.697; -698.100; -726.820
669.688; -208.097; -482.100; -666.820
669.957; -201.497; -423.099; -546.821
670.226; -122.697; -268.099; -331.821
670.496; -196.897; -431.099; -635.822
670.765; -167.796; -418.099; -501.822
671.034; -274.096; -872.099; -828.822
671.304;  -28.596;   55.902; -111.823
671.573; -341.196;-1085.098; -957.823
671.842; -119.996; -380.098; -294.823
672.112; -196.795; -692.098; -586.824
672.381;  -78.795; -239.098; -214.824
672.650; -291.095;-1005.097;-1021.825
672.919; -199.195; -631.097; -507.825
673.188; -211.995; -681.097; -878.825
673.457; -352.594;-1101.097;-1143.826
673.726; -196.894; -579.096; -646.826
673.995; -138.794; -533.096; -479.826
674.265; -108.294; -263.096; -333.827
674.534;  -91.693; -183.096; -235.827
674.802; -164.693; -618.096; -703.828
675.071; -237.493; -886.095; -801.828
675.340; -184.393; -464.095; -339.828
675.609;    8.407;  103.905;   82.171
675.878; -266.492; -949.095; -893.829
676.147;  -17.992;  -26.095;   -8.829
676.416;  -97.892; -210.094; -294.830
676.685;  296.108; 1000.906; -622.830
676.953; -156.892; -603.094; -452.831
677.222;  -48.291; -193.094; -273.831
677.491;  -50.491;  -24.094; -127.831
677.759;  -51.691;   11.907;  172.168
678.028; -117.891; -279.093; -222.832
678.297;  -16.991;   71.907;  197.168
678.565; -299.990; -898.093; -944.833
678.834; -146.190; -311.093; -268.833
679.102; -164.290; -411.092; -391.834
679.371; -297.890; -898.092; -727.834
679.639; -219.590; -797.092; -786.834
679.908; -206.389; -794.092; -724.835
680.176; -313.189; -895.091; -941.835
680.445; -127.989; -346.091; -352.835
680.713;   -2.389;  -58.091;  -23.836
680.982; -175.789; -523.091; -525.836
681.250; -207.388; -578.091; -507.837
681.518; -195.888; -534.090; -751.837
681.787;  -70.088; -204.090; -167.837
682.055; -140.588; -490.090; -422.838
682.323; -302.788; -993.090; -992.838
682.591; -110.587; -216.090; -538.838
682.859;  -71.787;    9.911;  -35.839
683.128;    5.013;  232.911;  497.161
683.396; -311.887;-1102.089;-1122.840
683.664;  -68.987; -241.089;   21.160
683.932;   17.514;  144.911;  -76.840
684.200; -180.286; -576.088; -320.841
684.468;  -67.786;  -73.088; -124.841
684.736;  -56.286; -214.088; -175.841
685.004; -313.186;-1024.088; -982.842
685.272; -234.485; -880.088; -774.842
685.540; -213.285; -499.087; -557.843
685.808; -217.085; -651.087; -682.843
686.076; -296.985; -894.087; -969.843
686.343; -221.385; -601.087; -815.844
686.611;  -67.884; -195.087; -224.844
686.879; -180.584; -530.086; -553.844
687.147; -160.084; -483.086; -480.845
687.414;  -71.684;  -12.086; -169.845
687.682; -246.584; -658.086; -757.846
687.950;   47.217;  259.915;  263.154
688.217; -262.783; -792.085; -760.846
688.485; -187.283; -632.085; -636.847
688.753;  -60.483;  -11.085; -102.847
689.020; -273.383; -820.085; -851.847
689.288; -258.182; -853.084; -787.848
689.555;  -50.982; -195.084; -148.848
689.823; -141.982; -241.084; -345.849
690.090; -189.382; -546.084; -651.849
690.358; -318.082; -877.084; -897.849
690.625;    7.019;  120.917;   45.150
690.892; -163.581; -403.083; -369.850
691.160;  -25.481;   72.917;  -35.850
691.427;    3.319;  141.917;  130.149
691.694; -282.481; -855.083; -929.851
691.962; -316.380;-1177.082;-1060.852
692.229;   15.320;  127.918;   56.148
692.496;  -14.680;  130.918;  -49.852
692.763;  -82.780; -164.082; -201.853
693.031; -192.380; -739.082; -716.853
693.298; -191.779; -509.081; -368.853
693.565;  -77.479; -155.081; -163.854
693.832;  -44.879;   -5.081;   -9.854
694.099; -197.579; -643.081; -642.855
694.366; -275.678; -882.081; -896.855
694.633; -274.378; -920.080; -633.855
694.900; 1341.222; 4367.920; -114.856
695.167;  -70.578; -214.080; -380.856
695.434; -226.078; -646.080; -623.856
695.701;   26.323;  121.921;  -61.857
695.968; -146.177; -365.079; -361.857
696.234; -204.977; -415.079; -646.858
696.501; -197.377; -776.079; -614.858
696.768; -214.077; -554.079; -617.858
697.035; -204.376; -632.078; -667.859
697.302; -208.976; -448.078; -552.859
697.568; -149.076; -458.078; -497.859
697.835; -224.976; -683.078; -624.860
698.102; -126.176; -498.078; -407.860
698.368;   72.325;  384.923;  396.139
698.635; -123.575;  -47.077; -424.861
698.901; -116.975; -240.077; -348.861
699.168; -154.875; -534.077; -456.862
699.435;  -48.975;  -72.077;  -13.862
699.701; -305.674; -868.076; -764.862
699.968; -167.474;  144.924; -441.863
700.234; -249.374; -783.076; -822.863
700.500; -152.574; -448.076; -539.864
700.767;  -35.974;   -1.075;   26.136
701.033; -280.973;-1015.075; -963.864
701.299; -152.673; -450.075; -483.865
701.566;  218.027;  950.925;  763.135
701.832;   -8.573;  -31.075;  -76.865
702.098; -302.773;-1054.074;-1034.866
702.365; -326.472;-1098.074;-1030.866
702.631; -345.572;-1038.074;-1063.867
702.897; -232.372; -765.074; -676.867
703.163;   43.128;  348.926;  254.133
703.429; -106.372; -256.073; -273.868
703.695; -232.471; -796.073; -792.868
703.961;  -54.371; -214.073; -210.868
704.227; -231.471; -630.073; -725.869
704.493;  157.629;  613.927;  510.131
704.759; -158.671; -565.072; -540.870
705.025;  -53.770; -203.072; -194.870
705.291; -185.470; -666.072; -562.870
705.557;  183.130;  719.928;   34.129
705.823; -209.470; -742.072; -694.871
706.089; -137.970; -307.071; -326.871
706.355;  -65.369; -315.071; -244.872
706.620; -261.669; -776.071; -729.872
706.886; -106.469; -309.071; -362.873
707.152; -274.869; -818.070; -973.873
707.418; -354.869;-1153.070;-1186.873
707.683; -205.168; -550.070; -530.874
707.949; -197.568; -547.070; -578.874
708.215;  -87.668; -129.070; -207.874
708.480; -132.268; -520.069; -420.875
708.746;   -8.568;   68.931;   28.125
709.011; -194.667; -578.069; -612.876
709.277; -181.767; -538.069; -543.876
709.542; -136.767; -428.069; -387.876
709.808;  -56.467;  -59.068;   89.123
710.073; -208.167; -577.068; -695.877
710.339;  -95.066; -242.068; -228.877
710.604; -285.566; -780.068; -845.878
710.869;  -86.866; -277.068; -366.878
711.135; -215.366; -715.067; -628.879
711.400; -168.366; -507.067; -608.879
711.665; -167.365; -404.067; -479.879
711.931; -210.265; -661.067; -677.880
712.196; -299.765; -876.067; -954.880
712.461; -150.565; -402.066; -490.880
712.726; -258.364; -727.066; -771.881
712.991; -233.264; -647.066; -664.881
713.256;  -91.864; -350.066; -332.882
713.521; -127.864; -417.065; -381.882
713.787; -183.364; -454.065; -472.882
714.052; -118.163; -214.065; -400.883
714.317; -322.963;-1045.065; -981.883
714.581; -118.763; -374.065; -268.883
714.846; -262.663; -822.064; -888.884
715.111;   45.337;  261.936;  257.116
715.376;  -95.862;  -86.064; -223.885
715.641; -131.362; -365.064; -367.885
715.906; -177.462;   15.936; -551.885
716.171;   44.538;  221.937;  209.114
716.436;  -32.162;  -78.063; -104.886
716.700; -222.261; -818.063; -692.886
716.965; -226.961; -794.063; -807.887
717.230; -148.561; -339.063; -392.887
717.494;  -52.161;  -40.062; -134.888
717.759; -239.661; -784.062; -640.888
718.024;   33.540;  269.938;  250.112
718.288;  171.640;  685.938;  395.111
718.553; -306.360; -803.062; -977.889
718.817; -263.260; -883.061; -899.889
719.082;  -39.160; -115.061; -125.890
719.346; -300.259;-1000.061; -947.890
719.611;  -99.759; -300.061; -255.891
719.875; -189.259; -568.060; -537.891
720.140; -174.759; -453.060; -603.891
720.404;  -75.959; -136.060; -249.892
720.668; -147.358; -475.060; -411.892
720.933;   26.142;  146.940;  137.108
721.197; -230.158; -667.059; -600.893
721.461; -275.058; -851.059; -826.893
721.725;   10.742;  -21.059; -250.894
721.990;  -80.557; -284.059; -204.894
722.254;  -47.657;  -26.059; -108.894
722.518; -126.157; -286.058; -442.895
722.782; -187.557; -743.058; -594.895
723.046;  144.443;  614.942;  570.105
723.310;   75.044;  374.942;  210.104
723.574; -190.456; -654.058; -614.896
723.838; -201.556; -576.057; -642.897
724.102;  -73.956; -226.057; -239.897
724.366; -302.556;-1032.057; -978.897
724.630; -232.555; -749.057; -571.898
724.894; -175.455; -722.057; -514.898
725.158;  -12.255;   38.944; -295.898
725.422; -134.355; -394.056; -327.899
725.685; -170.855; -441.056; -349.899
725.949; -224.954; -566.056; -519.900
726.213; -257.554; -732.056; -811.900
726.477; -336.754;-1020.055; -933.900
726.740;  -84.254; -274.055; -104.901
727.004; -181.654; -384.055; -510.901
727.268; -165.253; -442.055; -400.901
727.531; -300.653; -961.055; -775.902
727.795; -201.153; -713.054; -673.902
728.059; -180.853; -552.054; -557.903
728.322; -238.853; -841.054; -669.903
728.586; -197.452; -692.054; -701.903
728.849; -250.452; -695.053; -756.904
729.112; -263.452; -812.053; -912.904
729.376; -275.252; -959.053; -905.904
729.639; -158.252; -536.053; -536.905
729.903; -247.551; -733.053; -699.905
730.166; -131.351; -437.052; -399.906
730.429;  -91.351; -317.052; -468.906
730.693; -189.751; -355.052; -894.906
730.956;  195.149;  810.948;  651.093
731.219;  -56.450; -310.052; -103.907
731.482; -296.950;-1003.051; -894.907
731.745; -297.550; -794.051; -935.908
732.009;  -24.150;  -30.051;   50.092
732.272; -266.349; -904.051; -771.909
732.535; -103.849; -300.051; -310.909
732.798; -352.149;-1083.050;-1166.909
733.061; -143.649; -430.050; -456.910
733.324;   -4.249;   31.950; -180.910
733.587;   96.352;  290.950;  365.090
733.850; -230.448; -973.049;-1050.911
734.113;   -8.148;   33.951;   32.089
734.376; -134.948; -328.049; -447.912
734.639;  272.652; 1188.951; 1011.088
734.901;  -86.047; -180.049; -402.912
735.164; -264.347; -883.048; -837.913
735.427;  -79.847; -166.048; -355.913
735.690;  -82.247; -205.048; -234.913
735.952; -311.547; -923.048; -925.914
736.215; -349.446;-1113.048;-1009.914
736.478; -248.246; -771.047; -774.915
736.740;  -22.646;   33.953;  129.085
737.003; -224.346; -658.047; -672.915
737.266;  228.454;  -94.047;   46.084
737.528; -214.745; -682.047; -660.916
737.791; -133.445; -316.046; -327.916
738.053;   91.155;  465.954;  649.083
738.316;  -82.845; -162.046; -136.917
738.578; -237.245; -770.046; -736.918
738.841; -138.044; -382.046; -446.918
739.103; -247.444; -875.045; -777.918
739.365;  -25.044;   79.955;  -69.919
739.628; -266.644; -884.045; -805.919
739.890; -180.844; -758.045; -710.919
740.152; -200.143; -692.044; -754.920
740.414; -134.043; -408.044; -359.920
740.677; -185.543; -785.044; -634.921
740.939; -209.143; -587.044; -487.921
741.201; -171.143; -432.044; -572.921
741.463; -180.742; -689.043; -745.922
741.725;  -39.242;  -21.043; -199.922
741.987;   14.058;  220.957;  116.078
742.249; -245.642; -751.043; -859.923
742.511; -224.642; -703.043; -794.923
742.773; -148.341; -546.042; -546.924
743.035;  135.959;  796.958;  533.076
743.297; -302.341; -963.042;-1013.924
743.559;  -68.241; -278.042; -262.925
743.821; -234.341; -735.042; -744.925
744.083; -130.440;  -44.041; -149.925
744.345; -275.640; -869.041; -892.926
744.607;  -31.940;   75.959;  122.074
744.868; -164.840; -490.041; -554.927
745.130; -333.740; -994.041;-1008.927
745.392;  -23.039;   -1.040;  -44.927
745.653; -156.139; -411.040; -378.928
745.915;  226.261;  896.960;  631.072
746.177;  -51.939;   35.960;  -43.928
746.438; -176.939; -428.040; -543.929
746.700; -280.738; -947.039; -988.929
746.961; -284.338; -659.039; -740.930
747.223;  -70.138; -190.039;  -74.930
747.484; -142.938; -391.039; -471.930
747.746;  -54.138;  -23.038; -106.931
748.007; -218.937; -647.038; -689.931
748.269; -124.537; -468.038; -440.931
748.530; -226.237; -852.038; -638.932
748.791; -167.937; -354.038; -420.932
749.053;   49.863;  286.963;  163.067
749.314;  -81.836; -236.037; -169.933
749.575; -261.736; -945.037; -905.933
749.836;  -45.636; -217.037;   86.066
750.098;  -69.236;  -60.037;  -21.934
750.359;  106.265;  414.964;  555.066
750.620;  -74.835; -121.036; -220.935
750.881; -211.835; -585.036; -513.935
751.142; -294.135; -950.036; -938.936
751.403; -207.635; -789.036; -705.936
751.664; -305.034;-1034.035; -999.936
751.925;  -88.034; -175.035; -262.937
752.186; -116.834; -298.035; -278.937
752.447; -159.334; -590.035; -445.937
752.708; -202.634; -532.035; -648.938
752.969; -217.133; -566.034; -576.938
753.230; -250.433; -777.034; -672.939
753.491; -223.733; -650.034; -631.939
753.751;  -37.833;  109.966;   19.061
754.012;   34.467;  258.967;  181.060
754.273;  -83.532; -174.033;  -71.940
754.534; -152.532; -487.033; -580.940
754.794; -285.232; -926.033; -911.941
755.055;  248.068; 1051.967;  881.059
755.316; -222.232; -700.032; -566.942
755.576; -184.431; -606.032; -576.942
755.837; -187.831; -527.032; -695.942
756.097; -163.531; -530.032; -564.943
756.358; -255.631; -725.032; -770.943
756.618; -215.131; -705.031; -641.943
756.879; -134.430; -254.031; -349.944
757.139; -352.130;-1098.031;-1116.944
757.400; -171.230; -538.031; -553.945
757.660; -118.230; -365.031; -401.945
757.920; -126.430; -266.030; -228.945
758.181; -118.029; -468.030; -351.946
758.441; -254.629; -870.030; -809.946
758.701; -112.229; -308.030; -215.946
758.961; -116.729; -220.030; -278.947
759.222; -147.629; -574.029; -502.947
759.482; -228.328; -683.029; -723.948
759.742; -220.628; -706.029; -547.948
760.002;  -37.628;  -83.029; -143.948
760.262;  -11.028;   50.972;  182.051
760.522; -190.528; -498.028; -574.949
760.782; -214.727; -738.028; -612.949
761.042; -190.327; -618.028; -573.950
761.302;  -58.127;   55.972;  -18.950
761.562;  -76.527; -164.027; -154.951
761.822; -209.027; -710.027; -551.951
762.082; -362.026;-1104.027;-1093.951
762.342; -130.826; -328.027; -403.952
762.601; -195.126; -567.027; -506.952
762.861; -114.626; -281.026; -207.952
763.121; -134.726; -406.026; -411.953
763.381; -183.125; -499.026; -485.953
763.640;  -70.925; -139.026; -307.954
763.900; -112.925; -242.026; -203.954
764.160; -160.625; -458.025; -491.954
764.419; -226.325; -726.025; -782.955
764.679; -237.124; -795.025; -726.955
764.939;  -84.124; -124.025; -210.955
765.198; -196.324; -608.025; -563.956
765.458; -183.224; -710.024; -612.956
765.717; -206.024; -454.024; -590.957
765.976; -162.223; -428.024; -411.957
766.236; -167.923; -475.024; -610.957
766.495;   12.577;  260.977;   73.042
766.755; -356.123;-1090.023; -987.958
767.014; -197.323; -594.023; -665.958
767.273; -115.822; -373.023; -397.959
767.533; -101.022; -228.023; -307.959
767.792;  -70.322; -151.022; -188.960
768.051; -147.022; -228.022; -276.960
768.310; -201.121; -546.022; -650.960
768.569;  -31.121; -161.022;    4.039
768.828;  -99.121; -285.022; -363.961
769.088; -310.921;-1050.021; -942.961
769.347; -247.521; -755.021; -599.962
769.606; -275.520; -876.021; -857.962
769.865; -329.920;-1016.021;-1033.963
770.124;  -87.920; -411.021; -336.963
770.383; -271.620; -778.020; -910.963
770.641; -187.220; -398.020; -400.964
770.900; -284.619; -953.020; -846.964
771.159; -292.219; -851.020; -951.964
771.418; -289.319; -917.020; -779.965
771.677;  -77.219; -224.019; -293.965
771.936; -279.519; -794.019; -865.966
772.194; -246.118; -465.019; -437.966
772.453; -116.318; -213.019; -391.966
772.712;   76.882;  416.982;  329.033
772.970;  -34.018;   32.982;   63.033
773.229;    0.182;  -22.018;  102.033
773.488; -278.617; -814.018; -770.968
773.746;   92.083;  296.982;  335.032
774.005;  -11.317;  190.983;  -22.969
774.263;    5.683;  243.983;  177.031
774.522; -193.917; -422.017; -548.969
774.780; -156.516; -484.017; -417.970
775.039; -188.016; -551.017; -531.970
775.297;  -81.316; -135.016; -351.970
775.555; -184.616; -489.016; -612.971
775.814; -217.316; -618.016; -570.971
776.072; -257.515; -749.016; -740.971
776.330; -197.015; -630.016; -520.972
776.589; -211.515; -703.015; -721.972
776.847; -261.715; -645.015; -624.973
777.105; -319.515;-1016.015;-1032.973
777.363; -141.714; -459.015; -454.973
777.621; -271.314; -660.015; -717.974
777.879;  -15.514;  -42.014;   32.026
778.138; -191.714; -554.014; -717.974
778.396; -185.114; -585.014; -526.975
778.654; -335.113;-1015.014; -970.975
778.912; -119.013; -269.014; -371.976
779.170; -258.113; -880.013; -803.976
779.427; -287.413; -922.013; -897.976
779.685; -312.313; -880.013; -832.977
779.943; -260.012; -654.013; -593.977
780.201; -300.212; -964.012; -883.978
780.459; -230.512; -651.012; -610.978
780.717; -144.312; -440.012; -390.978
780.974; -160.312; -449.012; -490.979
781.232; -116.311; -358.012; -338.979
781.490; -183.611; -551.011; -472.979
781.747; -151.811; -555.011; -476.980
782.005;   76.689;  462.989;  254.020
782.263; -300.611; -542.011;-1004.981
782.520; -112.310; -326.011; -501.981
782.778; -314.310;-1013.010;-1051.981
783.035; -342.510; -962.010; -938.982
783.293;  -93.210; -248.010; -206.982
783.550;  -95.510; -134.010; -198.982
783.808; -261.209; -764.010; -776.983
784.065; -306.309; -745.009; -874.983
784.322;  -75.209;   25.991;  -86.984
784.580; -270.809; -915.009; -771.984
784.837; -162.209; -392.009; -466.984
785.094; -250.208; -783.009; -762.985
785.352; -169.508; -304.008; -404.985
785.609; -288.808; -934.008; -839.985
785.866; -145.608; -345.008; -401.986
786.123; -219.508; -639.008; -583.986
786.380; -204.507; -665.008; -604.987
786.637; -108.807; -225.007; -380.987
786.895; -186.607; -456.007; -543.987
787.152;  -77.207; -135.007; -267.988
787.409;  -74.706; -123.007; -225.988
787.666; -138.906; -299.006; -378.988
787.923; -228.206; -616.006; -695.989
788.179; -176.006; -551.006; -584.989
788.436; -198.606; -585.006; -585.990
788.693;  -41.405;  -92.006;  -87.990
788.950;  -55.505; -125.005; -112.990
789.207; -149.105; -381.005; -372.991
789.464; -113.905; -161.005; -301.991
789.720;    6.195;  150.995;  110.009
789.977; -339.104;-1003.005; -671.992
790.234;  -53.104;   44.996;  -66.992
790.490; -272.904; -884.004;-1031.993
790.747;  -46.104;  -85.004;   22.007
791.004; -121.904; -426.004; -348.993
791.260; -162.903; -430.004; -560.994
791.517; -250.403; -843.003; -788.994
791.773; -149.503; -379.003; -342.994
792.030; -238.503; -596.003; -660.995
792.286; -203.103; -686.003; -636.995
792.543;  -60.302;  -74.002; -159.995
792.799; -153.602; -584.002; -382.996
793.055; -370.302;-1179.002;-1210.996
793.312; -281.002; -827.002; -816.997
793.568; -221.402; -746.002; -599.997
793.824; -118.001; -226.001; -284.997
794.081; -153.901; -447.001; -508.998
794.337; -194.501; -664.001; -561.998
794.593; -107.101; -319.001; -271.999
794.849; -271.801; -746.001; -772.999
795.105; -134.300; -270.000; -261.999
795.361; -154.800; -490.000; -457.000
795.617; -280.600; -875.000; -945.000
795.873; -168.500; -360.000; -407.000
796.129; -125.300; -368.000; -306.000
796.385;  -93.700; -124.000; -156.000
796.641;  115.200;  412.000;  550.000
796.897; -211.700; -666.000; -635.000
797.153;  108.300;  453.000;  357.000
797.409; -290.300; -785.000; -868.000
797.665; -233.600; -625.000; -732.000
797.921; -270.400; -775.000; -762.000
798.176; -250.000; -744.000; -747.000
798.432; -251.400; -824.000; -596.000
798.688; -350.600;-1174.000;-1078.000
798.943;  -81.600; -165.000; -147.000
799.199; -321.200;-1005.000; -959.000
799.455;  138.200;  369.000;  316.000
799.710; -280.100; -813.000; -380.000
799.966;  -66.000; -162.000; -160.000
800.221; -238.500; -638.000; -721.000
800.477; -234.200; -743.000; -710.000
800.732; -278.800; -773.000; -800.000
800.988;   20.800;  205.000;  -19.000
801.243; -117.600; -454.000; -344.000
801.498; -262.900; -814.000; -739.000
801.754;  -94.100; -289.000; -163.000
802.009; -106.400; -257.000; -335.000
802.264; -338.900; -967.000;-1033.000
802.520;  -62.300;  222.000;   -3.000
802.775; -192.200; -524.000; -359.000
803.030;   65.600;  395.000;  356.000
803.285; -284.100; -840.000; -903.000
803.540; -219.200; -686.000; -699.000
803.795; -190.100; -648.000; -583.000
804.051; -114.700; -279.000; -346.000
804.306;   21.400;  168.000;  128.000
804.561;   63.700;  451.000;  362.000
804.816;  202.000;  714.000;  861.000
805.071; -118.700; -185.000; -280.000
805.325; -178.900; -257.000; -427.000
805.580; -284.700; -841.000; -877.000
805.835;  -98.700; -204.000; -297.000
806.090; -223.000; -760.000; -676.000
806.345; -122.600; -344.000; -264.000
806.600; -232.200; -549.000; -632.000
806.854; -142.200; -408.000; -538.000
807.109; -177.000; -493.000; -577.000
807.364;  -95.500; -407.000; -328.000
807.618; -165.100; -415.000; -381.000
807.873; -201.400; -470.000; -494.000
808.128; -101.300; -257.000; -518.000
808.382; -152.800; -224.000; -332.000
808.637; -160.800; -440.000; -511.000
808.891;  -85.400; -257.000; -180.000
809.146; -303.100; -902.000; -794.000
809.400; -284.100; -848.000; -923.000
809.654; -235.100; -779.000; -551.000
809.909; -278.800; -841.000; -927.000
810.163; -238.500; -813.000; -651.000
810.418; -306.500; -940.000; -861.000
810.672; -211.800; -685.000; -690.000
810.926; -313.400; -993.000; -973.000
811.180; -173.800; -439.000; -372.000
811.434;   10.400;  240.000;  135.000
811.689; -149.800; -231.000; -365.000
811.943; -314.700; -936.000; -953.000
812.197; -248.400; -893.000; -671.000
812.451; -163.400; -379.000; -514.000
812.705; -273.300; -809.000; -619.000
812.959; -226.700; -263.000; -388.000
813.213;  -84.800; -283.000; -209.000
813.467;   77.000;  470.000;  253.000
813.721; -242.500; -764.000; -792.000
813.975; -264.100; -826.000; -877.000
814.229;   44.300;  430.000;  353.000
814.482; -193.300; -517.000; -566.000
814.736; -272.200; -766.000; -744.000
814.990; -290.900; -779.000; -872.000
815.244; -112.400; -228.000; -285.000
815.497; -232.500; -636.000; -601.000
815.751;  -19.100; -141.000;   82.000
816.005; -195.800; -470.000; -586.000
816.258; -131.300; -510.000; -363.000
816.512; -230.300; -693.000; -610.000
816.766;  -14.200;  121.000;  157.000
817.019;   27.600;  148.000;  149.000
817.273; -295.500;-1000.000; -802.000
817.526;  -81.500; -206.000; -173.000
817.779; -342.900;-1049.000; -960.000
818.033; -255.400; -693.000; -807.000
818.286; -254.700; -725.000; -792.000
818.540; -201.100; -403.000; -403.000
818.793; -140.900; -402.000; -489.000
819.046; -218.300; -582.000; -520.000
819.299;  -58.500; -157.000; -166.000
819.553; -206.700; -552.000; -592.000
819.806; -333.200;-1016.000; -838.000
820.059;  -94.600; -334.000; -354.000
820.312;   30.600;  152.000;  185.000
820.565;   15.400;  110.000;  -27.000
820.818;  -95.800;  -59.000; -173.000
821.071; -306.300;-1041.000; -957.000
821.324; -185.700; -536.000; -540.000
821.577; -191.800; -457.000; -483.000
821.830; -113.500; -270.000; -172.000
822.083; -284.800; -733.000; -288.000
822.336;  -95.100; -261.000; -167.000
822.589; -275.300; -805.000; -688.000
822.842; -304.100; -875.000; -770.000
823.094; -354.700;-1076.000;-1114.000
823.347; -281.600; -925.000; -729.000
823.600;   26.300;  402.000;  187.000
823.853; -129.300; -311.000; -267.000
824.105; -193.200; -331.000; -575.000
824.358; -261.600; -617.000; -716.000
824.611;   -0.800;  234.000;   40.000
824.863; -192.900; -612.000; -591.000
825.116;  -49.800;  -33.000;   27.000
825.368; -173.200; -366.000; -372.000
825.621;  -98.500; -186.000; -240.000
825.873; -270.800; -704.000; -737.000
826.126; -232.400; -669.000; -641.000
826.378; -167.300; -389.000; -505.000
826.630; -306.300; -890.000; -898.000
826.883; -269.400; -754.000; -693.000
827.135; -125.000; -279.000; -270.000
827.387; -269.700; -893.000; -839.000
827.639;  -74.300;  -86.000;   32.000
827.892; -231.000; -742.000; -582.000
828.144; -295.200; -848.000; -804.000
828.396;  -52.600;  104.000;  -80.000
828.648; -181.600; -440.000; -333.000
828.900; -284.200; -702.000; -795.000
829.152; -218.800; -684.000; -683.000
829.404;  -78.900; -215.000; -267.000
829.656;   52.400;  321.000;  214.000
829.908;    4.200;  393.000;  229.000
830.160; -315.700;-1064.000;-1047.000
830.412; -174.400; -481.000; -430.000
830.664; -225.000; -557.000; -665.000
830.916; -128.100; -268.000; -206.000
831.167; -355.400;-1073.000; -951.000
831.419; -213.100; -623.000; -566.000
831.671; -271.600; -764.000; -809.000
831.923; -161.300; -311.000; -447.000
832.174; -107.900; -273.000; -331.000
832.426; -203.500; -493.000; -582.000
832.678; -349.900;-1043.000;-1091.000
832.929; -319.700; -947.000; -935.000
833.181; -208.500; -575.000; -677.000
833.432; -111.500;  -59.000; -186.000
833.684;  -25.300;  112.000;  -27.000
833.935; -220.600; -610.000; -566.000
834.187; -240.800; -829.000; -823.000
834.438;  -77.900;  -58.000;  -25.000
834.689; -103.000; -255.000; -123.000
834.941; -103.000; -343.000; -244.000
835.192; -201.200; -590.000; -533.000
835.443; -222.100; -419.000; -506.000
835.695;  -25.800;  138.000;  -16.000
835.946; -151.700; -608.000; -378.000
836.197; -205.400; -599.000; -622.000
836.448; -200.300; -528.000; -395.000
836.699; -109.800; -253.000; -341.000
836.950;  -21.600;   72.000;    7.000
837.201; -331.900;-1003.000; -987.000
837.452; -120.200; -356.000; -170.000
837.703; -286.400; -791.000; -737.000
837.954; -129.800; -205.000; -365.000
838.205; -335.600;-1029.000;-1008.000
838.456; -116.700; -196.000; -282.000
838.707; -142.800; -423.000; -519.000
838.958; -240.500; -634.000; -647.000
839.209;   37.400;   18.000;   40.000
839.460; -121.600; -439.000; -201.000
839.710;  -88.500; -135.000; -297.000
839.961;  174.100;  730.000;  612.000
840.212; -187.200; -382.000; -497.000
840.462; -140.500; -328.000; -277.000
840.713; -213.300; -571.000; -536.000
840.964;  -66.000;  -62.000; -143.000
841.214; -193.400; -384.000; -624.000
841.465;  -91.200; -214.000; -141.000
841.715; -171.100; -417.000; -380.000
841.966; -257.200; -746.000; -685.000
842.216; -133.100; -330.000; -431.000
842.466;  -83.100; -169.000; -313.000
842.717; -325.400; -964.000; -952.000
842.967; -207.700; -635.000; -641.000
843.217;  -36.800;   20.000;   28.000
843.468;  -69.600; -104.000; -132.000
843.718; -263.800; -718.000; -726.000
843.968; -302.800; -837.000; -765.000
844.218; -120.000; -315.000; -262.000
844.469; -183.600; -577.000; -561.000
844.719; -217.100; -537.000; -682.000
844.969; -157.500; -550.000; -580.000
845.219; -287.200; -814.000; -862.000
845.469; -127.200; -392.000; -342.000
845.719; -292.600; -792.000; -884.000
845.969;   -9.300;  119.000;  174.000
846.219; -255.600; -738.000; -720.000
846.469;   33.100;  464.000;  432.000
846.718;  -89.700; -115.000;   31.000
846.968; -282.600; -827.000; -827.000
847.218;  -88.100; -224.000; -371.000
847.468; -222.100; -586.000; -555.000
847.718; -302.300; -827.000; -798.000
847.967; -267.700; -826.000; -915.000
848.217; -184.200; -449.000; -569.000
848.467; -115.300; -405.000; -376.000
848.716; -254.700; -708.000; -725.000
848.966; -149.500; -372.000; -358.000
849.215; -159.700; -428.000; -419.000
849.465; -264.700; -785.000; -615.000
849.714; -362.600;-1132.000;-1150.000
849.964; -190.700; -551.000; -613.000
850.213; -143.900; -393.000; -355.000
850.463;   20.400;  137.000;  340.000
850.712; -199.400; -542.000; -567.000
850.961; -227.400; -739.000; -678.000
851.211; -221.500; -513.000; -504.000
851.460; -242.400; -635.000; -650.000
851.709;  -36.400;  -25.000;   18.000
851.958; -273.600; -912.000; -750.000
852.208; -289.800; -859.000; -879.000
852.457;  -99.100; -181.000;  -13.000
852.706; -302.200; -791.000; -823.000
852.955; -186.100; -507.000; -528.000
853.204; -200.100; -521.000; -461.000
853.453; -176.700; -418.000; -458.000
853.702; -270.500; -660.000; -750.000
853.951; -203.300; -532.000; -520.000
854.200; -193.600; -613.000; -562.000
854.449; -249.600; -695.000; -661.000
854.698; -147.600; -340.000; -279.000
854.946; -106.500; -181.000; -284.000
855.195; -262.100; -843.000; -868.000
855.444; -137.900; -395.000; -420.000
855.693; -220.400; -345.000; -432.000
855.941; -188.700; -387.000; -516.000
856.190;  -96.900; -256.000; -382.000
856.439; -261.600; -652.000; -703.000
856.687;  -30.500;  -99.000;  -72.000
856.936; -167.300; -621.000; -323.000
857.184; -341.400;-1067.000;-1020.000
857.433; -179.400; -423.000; -512.000
857.681; -325.600; -989.000; -953.000
857.930; -146.800; -282.000; -433.000
858.178; -316.200; -856.000; -929.000
858.427; -271.200; -802.000; -781.000
858.675; -204.800; -377.000; -544.000
858.923; -175.000; -527.000; -819.000
859.172; -341.600;-1094.000;-1070.000
859.420; -156.100; -339.000; -239.000
859.668; -253.500; -624.000; -628.000
859.916;  -27.400;  109.000;  115.000
860.164; -266.100; -699.000; -603.000
860.413; -269.800; -878.000; -696.000
860.661; -229.500; -709.000; -577.000
860.909; -167.200; -339.000; -325.000
861.157; -164.700; -277.000; -444.000
861.405; -246.500; -534.000; -670.000
861.653;   41.000;  310.000;  310.000
861.901; -198.300; -543.000; -613.000
862.149; -285.600; -801.000; -824.000
862.396; -161.300; -297.000; -187.000
862.644; -128.400; -368.000; -347.000
862.892;   -2.400;   98.000;  138.000
863.140; -199.300; -549.000; -530.000
863.388; -286.300; -815.000; -759.000
863.635; -205.600; -642.000; -601.000
863.883;   31.300;  231.000;  190.000
864.131; -157.000; -288.000; -357.000
864.378; -234.900; -675.000; -540.000
864.626; -179.000; -347.000; -415.000
864.873; -206.000; -556.000; -505.000
865.121; -259.300; -714.000; -799.000
865.368;  -72.700; -173.000;   75.000
865.616;  -69.600;  -33.000;  -40.000
865.863; -204.000; -462.000; -506.000
866.111; -291.500; -795.000; -824.000
866.358; -148.600; -426.000; -420.000
866.605;  -66.700;  -64.000; -804.000
866.853; -243.100; -621.000; -537.000
867.100; -275.600; -728.000; -775.000
867.347; -248.500; -672.000; -611.000
867.594; -269.900; -740.000; -714.000
867.841;  -21.600;   97.000;   17.000
868.089; -264.500; -746.000; -698.000
868.336; -163.100; -477.000; -420.000
868.583; -225.800; -637.000; -741.000
868.830;  -68.800; -131.000; -170.000
869.077; -293.400; -859.000; -787.000
869.324; -259.500; -502.000; -458.000
869.571; -211.700; -398.000; -430.000
869.818; -182.200; -485.000; -439.000
870.065; -203.100; -439.000; -513.000
870.311; -175.100; -456.000; -542.000
870.558; -159.400; -332.000; -311.000
870.805;  -89.600; -320.000; -384.000
871.052; -144.000; -494.000; -369.000
871.298; -129.000; -204.000; -131.000
871.545;  -81.200; -151.000; -185.000
871.792; -124.100; -173.000; -222.000
872.038;  -83.900;   43.000; -126.000
872.285; -195.100; -496.000; -387.000
872.532; -153.200; -357.000; -387.000
872.778;  122.900;  556.000;  403.000
873.025; -117.400; -384.000; -359.000
873.271;   80.900;  501.000;  578.000
873.517;  -70.800; -133.000; -209.000
873.764;  -95.700; -193.000;  -80.000
874.010; -124.400; -143.000; -230.000
874.257;  -47.600;  123.000;   90.000
874.503; -220.300; -579.000; -479.000
874.749;  -58.400;   31.000;  275.000
874.995;  -66.300;  -80.000;  -20.000
875.242; -180.300; -540.000; -478.000
875.488; -181.800; -414.000; -439.000
875.734;  -92.500; -106.000; -234.000
875.980; -328.000; -872.000;-1032.000
876.226; -110.400; -157.000; -255.000
876.472;   13.300;  343.000;  237.000
876.718;  -33.700;  184.000;  158.000
876.964;    9.600;   56.000;   55.000
877.210; -252.200; -547.000; -677.000
877.456; -230.300; -630.000; -557.000
877.702; -316.800; -821.000; -832.000
877.948; -162.700; -377.000; -497.000
878.193;   78.900;  361.000;  255.000
878.439; -206.900; -487.000; -472.000
878.685; -127.400; -272.000; -343.000
878.931; -200.900; -618.000; -676.000
879.176;  -92.800; -201.000; -201.000
879.422; -319.500; -933.000; -820.000
879.668;  -17.900;   10.000;   79.000
879.913;  -50.600;   53.000;  137.000
880.159;  -81.300; -112.000;  -17.000
880.404; -101.700; -152.000; -162.000
880.650;  -42.500;   91.000;  141.000
880.895; -255.200; -670.000; -710.000
881.141; -175.300; -454.000; -428.000
881.386; -215.500; -503.000; -658.000
881.631; -160.100; -311.000; -166.000
881.877;  -19.400;  112.000;  -13.000
882.122; -214.400; -684.000; -600.000
882.367; -130.600; -136.000; -186.000
882.612;  -75.000;  -80.000; -176.000
882.858; -290.400; -877.000; -823.000
883.103; -126.900; -297.000; -267.000
883.348; -249.900; -759.000; -852.000
883.593; -251.700; -677.000; -602.000
883.838;  -70.900; -311.000;  -24.000
884.083;   13.600;  353.000;  288.000
884.328; -161.400; -564.000; -545.000
884.573;  -94.000; -196.000; -143.000
884.818; -252.700; -694.000; -531.000
885.063; -142.900; -348.000; -315.000
885.308; -189.800; -475.000; -398.000
885.553;   21.100;  245.000;  325.000
885.797; -197.600; -545.000; -615.000
886.042;  -67.000;    8.000;   58.000
886.287; -114.300; -253.000; -211.000
886.532;  -31.700;   26.000;  204.000
886.776; -129.200; -407.000; -525.000
887.021; -224.200; -621.000; -574.000
887.265; -230.900; -685.000; -689.000
887.510; -230.200; -557.000; -496.000
887.755; -130.500; -194.000; -164.000
887.999; -233.900; -552.000; -575.000
888.244;  -57.200;  -58.000;  161.000
888.488;   58.600;  371.000;  393.000
888.732; -195.900; -368.000; -520.000
888.977; -201.000; -622.000; -567.000
889.221; -274.400; -683.000; -659.000
889.465; -211.200; -422.000; -566.000
889.710; -105.500;  -56.000; -299.000
889.954;   78.200;  579.000;  467.000
890.198; -225.100; -584.000; -707.000
890.442; -254.000; -716.000; -712.000
890.687; -311.200; -800.000; -753.000
890.931; -155.700; -273.000; -210.000
891.175; -239.900; -502.000; -500.000
891.419; -117.300; -105.000; -110.000
891.663; -120.400; -239.000; -112.000
891.907; -270.800; -801.000; -545.000
892.151; -330.600; -920.000; -815.000
892.395; -157.000; -274.000; -387.000
892.638;   11.400;  408.000;  291.000
892.882; -277.300; -780.000; -867.000
893.126;  110.100;  758.000;  558.000
893.370;  -72.900; -167.000; -168.000
893.614; -220.800; -714.000; -715.000
893.857; -174.200; -183.000; -197.000
894.101; -207.000; -527.000; -631.000
894.345;  -55.500;  300.000;  150.000
894.588;   94.200;  569.000;  380.000
894.832;  -98.600; -178.000;  -84.000
895.075; -104.900;   15.000;  -92.000
895.319; -205.100; -552.000; -420.000
895.563; -189.300; -413.000; -353.000
895.806; -273.600; -628.000; -741.000
896.049; -171.400; -576.000; -368.000
896.293;   66.100;  527.000;  405.000
896.536; -227.900; -465.000; -468.000
896.779;  -86.800; -149.000;   -1.000
897.023; -240.100; -751.000; -714.000
897.266;   17.800;  325.000;  269.000
897.509; -327.700; -900.000; -901.000
897.752;  -30.700;  149.000;  171.000
897.996; -318.400; -972.000; -864.000
898.239;  -14.200;  168.000;  102.000
898.482; -213.300; -431.000; -453.000
898.725;  -57.400;  101.000;   53.000
898.968; -265.100; -609.000; -744.000
899.211; -203.400; -513.000; -361.000
899.454; -236.700; -633.000; -539.000
899.697;  -59.200;   90.000;  -43.000
899.940; -280.600; -761.000; -757.000
900.182; -126.100; -335.000; -405.000
900.425; -147.200; -150.000; -298.000
900.668;   46.600;  491.000;  350.000
900.911; -142.900; -292.000; -345.000
901.154;  -39.200;  141.000;   -3.000
901.396; -204.300; -407.000; -412.000
901.639; -259.500; -430.000; -496.000
901.882; -324.700; -790.000; -809.000
902.124; -104.100;  -29.000; -143.000
902.367; -176.200; -315.000; -361.000
902.609; -195.000; -476.000; -453.000
902.852;  -80.100; -108.000; -260.000
903.094; -206.300; -458.000; -337.000
903.337;  -44.600;  -26.000;   53.000
903.579; -164.600; -228.000; -441.000
903.821; -283.200; -597.000; -744.000
904.064;  -48.100;   85.000;  127.000
904.306; -105.900; -126.000; -166.000
904.548; -122.200; -152.000; -366.000
904.790; -133.500; -195.000; -340.000
905.033; -195.800; -625.000; -577.000
905.275; -227.200; -513.000; -524.000
905.517;   25.900;  468.000;  256.000
905.759; -264.800; -667.000; -761.000
906.001; -191.500; -322.000; -369.000
906.243; -166.000; -162.000; -224.000
906.485; -126.300; -265.000; -207.000
906.727; -223.500; -499.000; -542.000
906.969; -109.100;  -30.000; -135.000
907.211; -170.300; -316.000; -382.000
907.453; -113.100; -188.000; -237.000
907.695; -157.100; -158.000; -385.000
907.936;  109.000;  818.000;  706.000
908.178;  -79.200;   92.000; -135.000
908.420; -113.200; -111.000; -162.000
908.662; -251.800; -633.000; -682.000
908.903; -170.400; -208.000; -123.000
909.145; -135.300; -240.000; -305.000
909.386;  -15.400;  315.000;  280.000
909.628;   21.900;  363.000;  397.000
909.870;  -56.500;   29.000;  264.000
910.111; -329.800; -809.000; -949.000
910.353; -118.600; -123.000; -161.000
910.594; -249.000; -574.000; -606.000
910.835; -159.900; -265.000; -326.000
911.077; -259.400; -503.000; -604.000
911.318; -230.200; -505.000; -471.000
911.559; -290.100; -577.000; -880.000
911.801; -184.200; -284.000; -280.000
912.042;  -71.000;  -50.000; -159.000
912.283;   22.800;  404.000;  371.000
912.524; -209.600; -396.000; -457.000
912.765; -127.500; -193.000;   79.000
913.006; -169.800; -307.000; -338.000
913.247; -176.200; -270.000; -290.000
913.488; -133.900;  -43.000;   30.000
913.729; -224.600; -373.000; -373.000
913.970; -127.000;  -96.000; -292.000
914.211; -112.500; -160.000; -198.000
914.452; -126.500; -118.000;  -11.000
914.693;   28.100;  510.000;  592.000
914.934;   77.900;  510.000;  440.000
915.175;  -97.900;   53.000;  -95.000
915.415; -134.000; -137.000;   27.000
915.656;  -96.600;  -28.000;  192.000
915.897; -157.900; -252.000;  -82.000
916.137; -103.800;   74.000;   -9.000
916.378; -236.400; -573.000; -517.000
916.619; -144.300; -159.000;  -63.000
916.859;  -16.800;  303.000;  330.000
917.100;  321.300; 1655.000; 1070.000
917.340;  145.200;  930.000;  728.000
917.581;  122.000;  965.000;  789.000
917.821; -155.400; -171.000;  143.000
918.061; -132.600; -199.000;  -72.000
918.302; -149.200; -152.000; -211.000
918.542;  -89.500;  -22.000;    3.000
918.782;  -27.600;  369.000;  377.000
919.023;   39.500;  360.000;  427.000
919.263; 2115.400; 8131.000;  202.000
919.503; -149.300; -137.000;  -54.000
919.743;   -6.700;  390.000;  266.000
919.983;  -87.000; -134.000;  -26.000
920.223; -103.600;  135.000;   14.000
920.463;   77.700;  631.000;  554.000
920.703;  -70.900;   84.000;   39.000
920.943; -124.600; -110.000;   90.000
921.183; -222.800; -414.000; -405.000
921.423;   35.900;  307.000;  546.000
921.663; -151.400; -174.000; -257.000
921.903;  -53.500;  237.000;  173.000
922.143;   -9.200;  372.000;  389.000
922.383;  -62.800;  158.000;  115.000
922.622; -117.700; -120.000;  -15.000
922.862;   46.900;  796.000;  785.000
923.102; -104.700;  -51.000;   33.000
923.341;  -97.900;   59.000;   74.000
923.581;   -9.000;  450.000;  360.000
923.821;  -18.400;  301.000;  398.000
924.060;  -17.400;  351.000;  193.000
924.300; -142.600;  -16.000; -128.000
924.539;    1.300;  584.000;  473.000
924.779;   65.600;  812.000;  597.000
925.018;  -51.800;  247.000;  353.000
925.257;   65.900;  595.000;  666.000
925.497;  -12.700;  447.000;  412.000
925.736; -115.700;  -35.000;  102.000
925.975;   76.900;  687.000;  669.000
926.214;  121.300;  907.000;  850.000
926.454;   63.100;  706.000;  757.000
926.693;  -27.700;  419.000;  543.000
926.932;  153.000; 1021.000;  825.000
927.171;  194.600; 1107.000; 1044.000
927.410;  185.900; 1144.000;  967.000
927.649;  123.900;  924.000;  742.000
927.888;   37.400;  590.000;  564.000
928.127;   13.000;  680.000;  678.000
928.366;  109.300;  842.000;  826.000
928.605;   80.100;  831.000;  737.000
928.844;  250.900; 1451.000; 1393.000
929.083;   23.000;  770.000;  613.000
929.321;  279.500; 1335.000; 1359.000
929.560;  216.300; 1158.000; 1122.000
929.799;  -14.900;  574.000;  475.000
930.038;  229.100; 1025.000; 1394.000
930.276;  -50.000;  334.000;  397.000
930.515;   90.500;  827.000;  681.000
930.753;  -32.300;  614.000;  589.000
930.992;   17.400;  664.000;  717.000
931.230;   68.000;  847.000;  847.000
931.469;  451.500; 2162.000;  892.000
931.707;  263.800;  840.000;  751.000
931.946;  184.700; 1278.000; 1344.000
932.184;  199.900; 1437.000; 1175.000
932.423;  180.800; 1265.000;  963.000
932.661;  225.200; 1296.000; 1428.000
932.899;   78.800;  987.000;  821.000
933.137;    6.800;  754.000;  564.000
933.376;  221.800; 1664.000; 1335.000
933.614;  302.000; 1759.000; 1196.000
933.852;  141.600; 1357.000; 1171.000
934.090;  316.100; 1722.000; 1747.000
934.328;  237.600; 1252.000; 1457.000
934.566;  169.400; 1431.000; 1110.000
934.804;  157.300; 1263.000; 1309.000
935.042;  285.300; 1861.000; 1850.000
935.280;  359.900; 2088.000; 2063.000
935.518;  364.100; 2113.000; 2007.000
935.756;  393.900; 2481.000; 2316.000
935.994;  245.200; 1808.000; 1751.000
936.231;  605.300; 2890.000; 2950.000
936.469;  418.300; 2367.000; 2378.000
936.707;  369.900; 2220.000; 2167.000
936.945;  561.000; 2825.000; 2882.000
937.182;  475.800; 2679.000; 2741.000
937.420;  625.200; 3602.000; 3031.000
937.657;  745.900; 3365.000; 3478.000
937.895;  644.500; 3331.000; 3488.000
938.133;  674.600; 3540.000; 3528.000
938.370;  766.200; 3896.000; 4191.000
938.607;  929.300; 4488.000; 4205.000
938.845; 1196.800; 5587.000; 5549.000
939.082; 1090.300; 5387.000; 5177.000
939.320; 1163.900; 5799.000; 5728.000
939.557; 1396.500; 6549.000; 6491.000
939.794; 1525.400; 7285.000; 7097.000
940.031; 1793.700; 8421.000; 8368.000
940.269; 1962.700; 9552.000; 9107.000
940.506; 2255.200;10901.000;10507.000

