
Integration time [ms]: 100.000
Averaging Nr. [scans]: 40
Smoothing Nr. [pixels]: 0
Data measured with spectrometer [name]: 2101013U2
Wave   ;Sample   ;Dark     ;Reference
[nm]   ;[counts] ;[counts] ;[counts] 

394.013;   44.570; -450.257; -315.536
394.305;  178.668; -461.258; -419.536
394.596; 1593.794; -676.269; -527.514
394.887; 4113.214; -796.268; -654.518
395.178; 1488.201;  145.736;   11.476
395.470;   77.514; -210.263; -356.526
395.761;  144.732;  305.734;  394.479
396.052;  103.919; -545.284; -306.489
396.343;   94.528; -557.276; -454.503
396.634;   34.315; -200.279; -290.497
396.926;   27.161; -618.268; -565.517
397.217;   49.808;   11.725;  -17.504
397.508;   28.552; -366.273; -154.507
397.799;   10.940; -555.279; -571.497
398.090;   -4.342; -973.280; -902.495
398.381;   73.604;   11.708;  -11.473
398.672;  -32.695; -585.292; -742.473
398.963;   21.223; -348.279; -373.498
399.254;   67.141;   54.709; -209.475
399.545;  -27.522;-1017.266; -883.520
399.836;   27.165; -407.277; -343.501
400.127;   46.776; -205.295; -209.468
400.418;   31.796; -423.274; -392.506
400.709;   18.468; -359.281; -333.493
401.000;   30.171; -268.291; -309.476
401.290;  102.549;  225.698;  115.545
401.581;   68.648; -166.286; -228.485
401.872;    8.042; -542.298; -486.462
402.163;   57.492; -313.296; -252.467
402.454;   74.142; -123.291; -163.475
402.744;   26.431; -844.297; -813.465
403.035;  230.469; -226.293;  -86.471
403.326;  300.359; -366.292; -384.474
403.617;  312.710;  204.701;  165.539
403.907;  342.751; -593.283; -679.490
404.198; 3517.994; -545.307; -599.446
404.489; 9096.182; -618.283; -588.491
404.779; 2540.504; -618.302; -660.456
405.070;  272.403;  -67.304; -174.451
405.360;  472.996; -259.293; -238.472
405.651;  451.167;  125.699;   98.542
405.942;  164.368;  209.714;  127.516
406.232;   86.435; -432.285; -413.487
406.523;  226.412;  641.706;  758.530
406.813;   42.595; -579.286; -644.484
407.104;  185.153;  261.708;  144.527
407.394;   62.162; -604.299; -591.462
407.685;  128.384;  336.715;  222.513
407.975;   61.655; -400.283; -382.490
408.265;  103.484; -134.289; -190.478
408.556;   53.013; -472.291; -459.475
408.846;  169.388;  474.706;  429.530
409.137;   92.594;   -1.288; -216.480
409.427;   75.985; -193.285; -271.487
409.717;   47.106; -776.273; -692.508
410.007;  138.177;    4.715; -170.486
410.298;  110.079; -360.295; -342.469
410.588;   70.332; -495.285; -510.486
410.878;   56.383; -792.287; -873.482
411.168;  111.595; -481.298; -478.463
411.459;  135.249; -295.283; -242.489
411.749;   90.987; -609.292; -507.474
412.039;   78.817; -755.289; -386.480
412.329;  215.031;   40.722;  132.501
412.619;  209.496;  -62.286; -148.485
412.909;  355.263;  639.711;  594.521
413.199;  289.584; -130.280; -251.495
413.490;  376.676;  521.710;  352.523
413.780;  212.164;-1013.279; -913.496
414.070;  388.704;  -46.276;  235.497
414.360;  415.527; -729.278; -666.498
414.650;  515.928; -726.288; -688.482
414.940;  719.763; -538.280; -441.496
415.230; 1212.549;   50.712;   74.519
415.520; 8362.568;  155.730;   66.486
415.809;33864.517; -305.281; -125.493
416.099;25579.342; -388.277; -229.501
416.389; 7675.293;  435.726;  236.494
416.679; 4436.244;   91.738;   85.473
416.969;  754.913; -527.287; -503.483
417.259;  638.441;  341.721;  171.503
417.549;  868.766;  522.718;  318.508
417.838; 2405.839; -205.268; -147.518
418.128; 8170.833;  650.710;  492.522
418.418; 6743.764; -491.272; -579.509
418.708; 4473.318;    9.726;  -48.506
418.997;17521.063; -474.275; -480.505
419.287;17922.001; -733.273; -790.507
419.577;17695.298; -160.283; -123.489
419.866;56494.790; -588.277; -498.501
420.156;54678.763; -242.270;  -55.513
420.446; 9099.185; -112.263;  -26.526
420.735;  866.181; -376.271; -446.512
421.025;  888.251; 1830.722;  315.502
421.314;  519.704; -203.271; -226.512
421.604;  644.080;   89.732;  233.484
421.893;  413.399; -705.271; -602.511
422.183;  287.535; -487.263; -461.526
422.472;  404.426;  -36.271; -107.511
422.762;  403.710; -416.266; -379.521
423.051;  255.180; -916.276; -916.503
423.341;  319.579; -491.273; -439.507
423.630;  391.817; -121.265;   15.477
423.919;  419.762;   58.725;   49.495
424.209;  467.966;  -31.263;   56.473
424.498;  632.210;   68.732;  161.483
424.787; 1435.943; -535.267; -601.518
425.077; 4318.590;   34.735;   29.478
425.366; 4717.023; -734.262; -744.528
425.655;13568.754;  639.727;  259.493
425.945;34900.878; -313.247; -268.554
426.234;18322.550;  117.741;  300.467
426.523; 7155.006;  -86.259; -350.534
426.812; 9715.555;  107.734;  159.480
427.101;14791.651; -127.269; -323.515
427.390;17339.968;  -55.270;  -86.514
427.680; 2508.055; -624.257; -411.538
427.969;  497.568; -330.255; -301.540
428.258;  360.820; -385.257; -477.536
428.547;  499.419;  449.728;  397.490
428.836;  722.112; -421.253; -398.543
429.125;  993.909; -199.259;  -72.534
429.414;  768.490; -330.251; -294.548
429.703; 4427.265; -231.251; -213.548
429.992;13838.219; -938.250; -828.549
430.281; 8733.126; -397.264; -331.524
430.570;  579.728;  -21.252;   32.454
430.859;  405.531;  279.741;  352.466
431.148;  387.448;  636.752;  631.446
431.437;  305.528;  391.748;  367.454
431.725;  200.647; -544.257; -481.536
432.014;  215.396; -845.253; -756.545
432.303;  407.838; -149.239; -105.569
432.592;  546.209; -460.263; -178.525
432.881; 1423.899; -601.248; -437.554
433.169; 9491.369; -343.255;  -61.540
433.458;19194.929;  445.765;  540.424
433.747; 7481.255; -397.261; -289.529
434.036;  936.510; -275.242; -280.564
434.324; 2913.384; -395.249; -379.551
434.613; 5209.527;   40.757;  159.437
434.902; 1497.177;  333.760;  439.433
435.190;  268.962;   75.761;  295.431
435.479;  151.955;  -52.245;   83.441
435.767;   99.040; -411.244; -427.561
436.056;  188.554; -340.242; -294.563
436.345;  482.704; -372.240; -223.568
436.633;  458.878;   60.750;  383.450
436.922;  185.357;  208.760;  414.432
437.210;  200.142; -194.236;    1.426
437.499;  444.377; -583.235; -432.576
437.787;  514.641; -339.236;  -10.574
438.075;  185.394;   56.761;  162.430
438.364;  194.872;  -44.238;  250.429
438.652;   98.597; -286.226; -138.592
438.941;   70.279;    3.770;  269.415
439.229;  -19.550; -665.252; -466.545
439.517;   33.262; -160.234;  -85.577
439.806;    3.716; -501.225; -290.595
440.094;  143.721;  377.766;  650.421
440.382;   35.600; -653.233; -302.580
440.670;   39.301; -361.235; -285.576
440.959;    4.487; -347.223; -170.599
441.247;   36.418; -151.229; -109.587
441.535;   60.510; -266.235;   31.423
441.823;  -12.482; -497.234; -305.578
442.111;  156.448;  173.771;  327.412
442.400;  277.979; -628.245; -335.559
442.688;  530.695; -111.234; -620.579
442.976;  223.692; -786.213; -450.617
443.264;   37.624; -324.224; -364.597
443.552;   31.699; -258.226;   51.408
443.840;  126.233;  602.765;  876.423
444.128;   85.774;  265.767;  269.420
444.416;  -11.024; -694.228; -312.588
444.704;    8.197; -465.219;  -92.605
444.992;   43.977;   -0.226;  240.407
445.280;   -0.695; -517.230;  -94.585
445.568;   -3.404; -694.212; -396.618
445.856;  137.103; -174.221;  357.398
446.143;  238.518;  -54.220;   -7.604
446.431;  215.305;  -25.228;  625.411
446.719;  167.396;  489.783;  675.391
447.007;  141.998;  481.769;  705.416
447.295;  167.658;  597.777;  871.402
447.583;   62.390; -464.229;  -34.587
447.870;  118.175; -434.221; -202.601
448.158;  214.053; -104.230;  129.415
448.446;  136.369; -800.219; -338.604
448.733;  128.651;   13.776;  269.403
449.021;  180.546;   60.788;  341.382
449.309;  164.139; -296.210;  208.379
449.596;  239.691;  128.783;   59.392
449.884;  191.517; -571.222; -325.600
450.172;  266.787; -756.227; -406.590
450.459;  633.272;  645.786;  780.387
450.747; 3747.164; -411.218; -147.608
451.034;12218.632;  493.772;  889.411
451.322; 9794.576; -413.214; -170.614
451.609;  714.778;  292.777;  508.403
451.897;  881.639; -550.203; -183.634
452.184; 2683.609; -622.223; -400.598
452.472; 2408.764;   97.792;  269.375
452.759;  323.495;  512.781;  864.395
453.047;   91.668; -407.212; -125.617
453.334;   32.379; -732.219; -216.606
453.621;   31.653; -438.214; -161.615
453.909;   76.305;   13.796;  384.368
454.196;  100.984; -299.199; -123.641
454.483;  217.630;  317.798;  540.364
454.771;  137.443; -215.208;  196.374
455.058;   53.397; -316.207;  102.374
455.345;  143.625;   71.807;  344.347
455.632;  106.826; -128.207;  235.373
455.919;   65.811;  -82.196;  182.354
456.207;  -60.936; -774.198; -450.642
456.494;  -15.681; -475.200;  -66.639
456.781;   13.000; -399.202; -198.635
457.068;   56.234; -253.206;  -29.628
457.355;  -10.640; -698.206; -401.629
457.642;   13.842; -552.205; -290.630
457.929;   16.014; -778.194; -417.651
458.216;  115.318; -575.212; -354.617
458.503;  396.970; -173.193;  -19.652
458.790;  425.840; -864.208; -630.625
459.077;  358.931;  -77.202;  110.364
459.364; 1185.706; -350.195; -210.649
459.651; 2525.531;  -46.206;  220.372
459.938; 1127.554; -864.209; -665.623
460.225;  110.459;  132.799;  276.363
460.512;  -43.317; -836.197; -688.645
460.799;  119.988;  -32.218;  320.392
461.086;   96.775; -370.200; -251.640
461.372;   16.340; -509.198; -279.642
461.659;   62.488; -165.196;  108.354
461.946;   26.268; -445.193;  -54.651
462.233;  204.747;  842.800;  888.361
462.519;  478.968; -814.201; -464.639
462.806; 1492.258; -768.197; -497.645
463.093; 1257.618; -445.191;  -66.656
463.380;   -3.558; -920.186; -824.664
463.666;   46.610; -259.197;  -18.646
463.953;  150.025; -406.195; -243.648
464.239;  293.675; -173.195;  -77.648
464.526;  404.638;  413.806;  743.350
464.813;  329.082; -565.190; -304.658
465.099;  344.395;  606.807;  607.348
465.386;  271.399;  903.807;  921.348
465.672;    5.483; -694.197; -522.645
465.959;   42.078; -598.188; -520.662
466.245;    3.774; -468.193; -359.652
466.532;   40.697; -109.195;   63.352
466.818;   21.242; -357.186; -216.664
467.104;  -23.610; -488.182; -415.672
467.391;  -22.691; -628.189; -459.658
467.677;   30.747; -289.186;    9.335
467.964;  -15.858; -682.189; -471.660
468.250;   29.600; -331.186; -160.665
468.536;   68.486;   90.811;  180.341
468.822;  -21.386; -821.184; -574.668
469.109;  144.012;  351.827;  471.311
469.395;  208.786;  729.808;  787.346
469.681;  215.089;   46.811;  156.341
469.967; 1774.045; -699.188; -382.660
470.254; 3987.129; -494.188; -306.662
470.540; 2470.536; -601.196; -476.646
470.826;  375.304; -488.181; -397.675
471.112;  400.743;  288.816;  113.331
471.398;   90.224; -253.183;  -58.670
471.684;   41.962; -626.177; -447.680
471.970;   26.183; -918.180; -981.675
472.256;   38.985; -521.192; -441.654
472.542;   16.475; -499.171; -434.691
472.828;   17.460; -743.182; -607.672
473.114;   23.952; -380.166; -283.700
473.400;    3.432; -504.175; -293.684
473.686;   37.110; -452.166; -400.701
473.972;   38.100; -230.174; -131.687
474.258;   -2.888; -925.173; -843.689
474.544;  320.253; -183.178;   -2.679
474.830;  525.334;  -65.175;   45.316
475.116;  802.309; -123.190; -196.658
475.401; 1122.736; -558.180; -467.676
475.687;  292.810; -725.180; -718.676
475.973;   -2.680; -673.181; -770.673
476.259;  222.887;  736.825;  764.315
476.544;  560.647; -539.176; -437.682
476.830; 1397.295; -398.172; -322.690
477.116; 1223.570; -430.177; -336.682
477.401;  159.860;  346.820;  358.324
477.687;  -17.443; -289.175; -405.684
477.973;   43.549;   21.819;   28.326
478.258;    4.034; -448.163; -348.706
478.544;   36.881;   21.815;   61.334
478.829;  -69.393; -818.171; -738.692
479.115;  -60.680; -749.172; -651.690
479.401;    6.069; -444.174; -449.686
479.686;   51.084; -253.180;  -74.676
479.972;   -2.541; -886.178; -776.680
480.257;   38.654; -258.166;  -65.700
480.542;   26.711; -614.170; -469.693
480.828;  248.505; 1288.824; 1392.317
481.113;  -26.097; -464.176; -426.683
481.399;  -20.737; -236.161; -202.711
481.684;  -41.747; -620.166; -462.700
481.969;   28.779; -158.159;  -73.713
482.255;  -14.901; -439.169; -285.695
482.540;    5.559; -569.178; -441.680
482.825;   35.237; -395.187; -404.663
483.110;  131.378;  -85.169; -105.696
483.396;  372.255; -840.157; -652.718
483.681;  743.600;  543.826;  730.313
483.966;  306.872; -696.160; -700.712
484.251;   -4.026; -404.174; -310.687
484.536;   -4.384; -356.165; -378.703
484.822;   22.877; -205.173; -218.687
485.107;  -15.600; -599.152; -502.726
485.392;  116.473;  662.836;  541.296
485.677;   78.565;  354.832;  163.302
485.962;   86.202;  160.843;  270.283
486.247;  101.744;  -14.162;   -8.707
486.532;   61.980; -178.166; -325.701
486.817;  167.581;  381.839;  431.291
487.102;  140.830; -453.154; -514.722
487.387; 1092.907; -637.156; -652.718
487.672; 1946.254; -154.164;  -38.705
487.957; 1192.514; -394.160; -286.711
488.241;  325.445; -290.150; -314.729
488.526; 1208.527; -280.152; -148.726
488.811; 2009.786; -881.177; -818.680
489.096; 1388.383; -666.154; -702.723
489.381;  716.698;    3.847;  162.275
489.666;  653.537; -428.161; -510.710
489.950;  210.737;  558.846;  627.277
490.235;  -30.286; -480.151; -458.728
490.520;  -34.364; -756.161; -723.710
490.804;  -33.016; -827.156; -736.719
491.089;   12.964; -469.149; -299.732
491.374;   34.427; -132.164;  -75.704
491.658;  -10.022; -817.147; -717.735
491.943;  117.932; -657.152; -609.727
492.227;  216.800; -178.155;  -38.721
492.512;   39.051; -294.157; -341.717
492.797;  -57.193; -713.149; -716.731
493.081;  -40.969; -588.147; -598.735
493.366;  -34.712; -751.161; -635.711
493.650;  227.645;  831.859;  917.254
493.935;   67.227; -648.147; -447.734
494.219;   -5.796; -778.142; -687.743
494.503;  -34.324; -585.150; -487.730
494.788;   67.491;   46.842;   74.285
495.072;  125.197;  184.850;  434.271
495.356;  241.068; -463.148; -343.733
495.641;  542.014; -812.146; -736.736
495.925;  453.140; -976.156; -903.719
496.209;   -1.037; -599.149; -451.732
496.494;  -33.645; -763.142; -544.744
496.778;   14.755; -364.154; -360.722
497.062;  -34.460; -819.156; -627.719
497.346;   -0.483; -869.160; -640.711
497.631;  163.372;  580.852;  560.266
497.915;   74.352;  -64.145;  175.261
498.199;   36.505; -341.157; -277.718
498.483;   48.500; -562.152; -508.725
498.767;  248.698;  301.850;  300.271
499.051;  282.511; -126.149; -100.732
499.335;   75.383; -693.149; -739.731
499.619;  -42.259; -381.129; -423.767
499.903;   22.873; -272.155;  -65.721
500.187;   16.614; -588.153; -316.724
500.471;   41.181; -796.152; -595.727
500.755;   95.712;   62.839;  -96.710
501.039;   14.999; -270.155; -357.721
501.323;   59.222;  -21.141;  264.254
501.607;   23.960; -447.163; -503.706
501.891;    1.681; -607.156; -512.718
502.174;  -44.260; -726.144; -585.741
502.458;   69.286;   89.849;  370.273
502.742;   54.200; -180.138; -191.751
503.026;  195.176; -412.147; -254.734
503.310;  339.577; -437.159; -375.713
503.593;  208.929; -464.147; -325.735
503.877;  144.549; -232.133; -156.760
504.161;  172.217;    2.847;  -50.724
504.444;  185.994; -841.158; -710.716
504.728;  767.826; -487.164; -522.704
505.012; 1102.769; -257.150;  -76.729
505.295;  791.063; -417.161; -212.711
505.579;  824.864; -256.156; -496.719
505.862; 1240.422; -555.145; -333.738
506.146; 1272.005; -681.159; -758.714
506.429;  560.631;  568.841;  461.286
506.713;  123.241; -732.151; -667.728
506.996;  492.204;   90.846;  295.278
507.280;  556.321; -633.165; -474.703
507.563;  379.272; -469.155; -261.721
507.847;  193.915; -423.153; -112.724
508.130;  178.339; -665.161; -456.711
508.413;  210.999; -758.167; -577.700
508.697;  397.824; -151.167;   12.300
508.980;  271.466; -422.153; -312.724
509.263;   21.117; -466.155; -450.720
509.547;   62.444; -124.150;   82.271
509.830;   46.716; -172.160;  140.289
510.113;  102.239;  128.844;  298.281
510.396;   38.698; -530.152; -300.725
510.680;   45.749; -818.145; -812.738
510.963;  187.010;  184.846;  180.277
511.246;  113.653; -493.150; -357.730
511.529;  293.855; -482.145;  -83.739
511.812;  635.644; -250.134;   10.241
512.095;  475.938; -740.151; -396.728
512.378;  110.533; -317.147; -245.736
512.661;   64.984; -703.137; -623.753
512.944;   94.482; -750.142; -637.744
513.227;  102.281; -170.137; -171.752
513.510;   74.890; -479.144; -671.741
513.793;   28.327; -485.140; -435.747
514.076;  168.016;  -43.127;  -39.771
514.359;  163.489; -294.149; -135.732
514.642;  154.660; -442.142; -567.744
514.925; 1122.250;  581.860;  561.253
515.208; 1667.690; -498.134; -443.758
515.491; 1049.982; -276.133; -182.761
515.773;  592.844; -410.143; -337.742
516.056; 3332.367;  249.864;  409.246
516.339; 4334.147; -754.136; -652.755
516.622; 2016.726; -518.150; -488.730
516.904;  558.578;  882.857;  975.257
517.187;  215.480; -730.138; -523.752
517.470;  426.326; -568.143; -510.743
517.752;  743.950; -624.136; -470.756
518.035;  585.165; -708.139; -725.749
518.318;  630.997; -799.136; -744.755
518.600; 4044.711; -300.132; -325.762
518.883; 5600.810;  310.858;   88.256
519.165; 2554.796; -585.138; -426.751
519.448;  439.835;  -61.132;  -19.762
519.730;  206.900; -573.126; -415.773
520.013;  228.352;  588.867;  664.240
520.295;  314.221;  -94.134;  -15.759
520.578;  622.251; -335.131; -305.764
520.860;  859.161; -254.132;   56.238
521.143;  637.378; -763.135; -584.756
521.425;  621.640; -251.125; -279.775
521.707; 1015.766; -622.127; -380.771
521.990; 2828.542; -199.127;  167.229
522.272; 3228.254; -116.140;   -4.748
522.554; 1202.145; -237.143; -157.742
522.836;  248.169;  -24.134;   99.241
523.119;  193.075; -496.148; -189.734
523.401;  167.209; -448.130; -314.766
523.683;  169.835; -865.137; -693.753
523.965;  417.627;  408.862;  260.248
524.247;  444.015;   54.878;  170.220
524.529;  325.771; -451.134; -367.759
524.812;  500.312;   -3.130;  191.234
525.094; 1398.751; -773.138; -631.751
525.376; 2211.826; -143.124;   78.223
525.658; 1334.869; -441.136; -339.754
525.940;  102.947; -805.131; -671.764
526.222;   19.498; -188.136;  -88.755
526.504;   52.270; -190.131;   32.237
526.786;   19.124; -960.133; -647.760
527.068;  110.908; -124.123;  -67.778
527.349;  -14.036; -865.137; -774.754
527.631;  131.035; -137.132;   22.238
527.913;  242.190; -664.127; -450.771
528.195;  331.457; -761.125; -639.774
528.477;  384.340;  -93.134;  -30.758
528.759;  283.786; -648.130; -522.766
529.040;  158.031; -569.123; -293.778
529.322;   91.085; -235.125;  -10.774
529.604;   85.189;  -47.130;   93.233
529.886;   48.924; -546.126; -302.773
530.167;   74.454;  232.870;  192.235
530.449;   49.633;    1.853;   63.265
530.731;   66.889; -572.122; -459.779
531.012;  147.589; -513.120; -216.784
531.294;  119.411; -118.116;  -43.792
531.575;  195.540;  290.875;  538.225
531.857;  134.984; -548.135; -266.757
532.138;  125.495; -113.141;   40.254
532.420;  109.055;  294.865;  403.244
532.701;   76.202; -722.133; -751.760
532.983;  178.331;  232.867;  182.239
533.264;   50.947; -243.126;  175.228
533.546;  -49.902; -491.136; -508.755
533.827;   27.698;  173.867;   -1.759
534.109;   10.684; -352.135;  -80.757
534.390;  103.490; -725.132; -582.762
534.671;  298.129; -270.135;  -82.756
534.953;  207.734; -751.123; -611.779
535.234;   46.193; -426.117; -255.789
535.515;  -44.151; -891.119; -735.785
535.796;    2.835; -431.128; -193.770
536.078; -102.925;-1050.124; -904.777
536.359;    9.310;  -22.123;    3.221
536.640;  -18.241; -480.125; -197.774
536.921;  171.445;  225.871;  143.232
537.202;  544.273;  -87.138;  -16.751
537.483;  688.400;  251.869;  377.236
537.764;  267.054;   17.870;   98.235
538.045;  -28.986; -543.134; -371.758
538.326;  -18.003; -596.129; -447.768
538.607;   77.517; -686.127; -476.771
538.888;  279.129;   98.879;    5.218
539.169;  302.097; -704.122; -535.781
539.450;  432.544;  236.871;   16.233
539.731;  268.933; -361.121; -182.783
540.012;  155.464;  199.880;  412.216
540.293;   82.744;   82.876;  158.224
540.574;    5.311; -895.113; -717.796
540.855;  514.856;  435.879;  377.218
541.136;  672.644;   47.878;  139.220
541.416;  382.562; -161.130; -220.766
541.697;  304.270; -274.131; -170.763
541.978; 1692.257; -270.135; -315.757
542.259; 2145.017; -211.127; -236.771
542.539;  979.104; -191.116; -186.790
542.820;  220.190;  461.875;  480.225
543.101;  126.776;  -52.145;  -77.738
543.381;   40.142; -638.127; -591.771
543.662;  354.589;  159.873; -254.771
543.942;  986.137; -751.127; -830.770
544.223; 1650.146;  193.878;  161.219
544.504; 1095.125; -275.124; -182.777
544.784;  888.774; -592.126; -408.773
545.065; 2533.358;  104.884; -254.791
545.345; 2967.849;  227.881;   14.215
545.626; 1956.110;  -14.113; -108.796
545.906; 1397.154;   77.869;   98.235
546.186;  591.330;   92.874;  -95.773
546.467;  308.828;   99.877;  -95.778
546.747;  505.878;  264.884;  327.210
547.027;  584.373;   91.876;  111.223
547.308;  562.436; -376.127; -530.770
547.588;  591.548;  299.871;  371.232
547.868;  243.755;  458.870;  588.235
548.149;  249.767;  609.885;  593.207
548.429;  254.040; -347.127; -299.771
548.709;  384.989; -645.120; -461.784
548.989;  778.386;   84.882;   88.213
549.269; 3376.034;   10.868;  139.239
549.550; 7841.158;  215.877;  117.222
549.830; 7028.281; -758.111; -556.799
550.110; 1344.215; -468.110; -320.801
550.390; 1319.940; -128.122;  -56.779
550.670; 1897.555; -868.114; -783.795
550.950; 1295.081; -509.121; -471.782
551.230;  243.576;  549.879;  460.218
551.510;   50.880; -381.121; -326.782
551.790;   70.300; -173.109; -127.803
552.070;  324.778;  940.877; 1181.223
552.350;  720.704; -492.119; -377.786
552.630;  987.174;   -2.121;   77.219
552.909;  587.009;  181.884;   73.209
553.189;  391.366;  -49.132;   33.237
553.469;  363.204; -703.119; -514.786
553.749;  365.344; -469.127; -357.772
554.029;  303.673;   33.883;  -24.790
554.308;  255.822; -154.115;  -37.794
554.588;  146.684; -196.128; -204.770
554.868;  131.732; -366.121;  -47.782
555.147;  253.944; -114.115;  -46.793
555.427;  950.261; -260.116; -250.792
555.707; 6318.441; -284.115; -200.793
555.986; 7779.885; -719.111; -538.800
556.266; 3950.127;   23.884;   72.210
556.546;  252.880; -888.121; -675.782
556.825;  457.302; -657.114; -556.794
557.105; 2908.407; -125.128;   17.230
557.384; 3445.757;  122.884;  187.209
557.664; 1358.661; -717.116; -508.792
557.943;  226.681; -557.121; -411.782
558.222;  335.615; -345.118; -344.788
558.502;  427.445; -116.115;  -76.793
558.781;  741.915;  194.885;  499.208
559.061;  688.964; -232.118; -227.788
559.340;  476.245;  302.883;  353.211
559.619; 1184.877;   93.884;  148.210
559.899; 1754.347; -239.117; -266.789
560.178; 1574.395; -778.115; -593.793
560.457; 4870.274; -623.117; -562.790
560.736; 6879.287; -472.111; -482.800
561.015; 4509.529; -500.128; -502.769
561.295;  543.548;  180.893;  215.193
561.574;  446.367;  119.885;  116.207
561.853;  705.855;  274.891;  303.197
562.132;  786.773;  -45.114;  182.206
562.411;  699.549;  396.879;  553.219
562.690;  291.015; -592.115; -458.792
562.969;  190.918;  472.888;  630.203
563.248;  544.097; 2966.878; 2487.219
563.527;  477.311; -290.111; -408.800
563.806;  688.315; -650.127; -521.771
564.085;  714.342; -297.105; -206.810
564.364;  454.126; -594.117; -405.790
564.643;  809.900; -276.121; -223.781
564.922; 3042.097;  221.890;  397.198
565.201; 3222.152; -640.109; -700.803
565.479; 1328.938; -297.115; -219.792
565.758;  585.382; -810.128; -712.770
566.037;  759.553; -155.109; -100.803
566.316;  372.708; -286.116;  -28.791
566.595;   81.466;  -17.115;  -12.793
566.873;  121.713; -166.111;  -79.801
567.152;  -31.782; -490.113; -590.797
567.431;   45.303; -113.116;    6.210
567.709;   50.724; -344.107; -212.807
567.988;  507.577; -810.114; -769.794
568.266;  882.366; -160.115;  -68.793
568.545;  671.898; -644.100; -514.819
568.824;  946.987;  160.885;  356.208
569.102;  999.426; -351.114; -235.794
569.381;  431.711; -492.116; -407.792
569.659;  -13.137; -553.113; -553.796
569.938;  106.344; -743.122; -465.780
570.216;  236.581; -225.109; -225.804
570.494;   14.755; -632.114; -572.795
570.773;   47.354;  202.879;  114.218
571.051;   49.582; -373.123; -357.778
571.330;  112.211; -221.113; -174.796
571.608;   99.919; -181.098; -173.823
571.886;  -33.346; -671.111; -581.799
572.164;  -17.243; -739.121; -621.782
572.443;  -12.979; -562.105; -512.811
572.721;  -16.551; -399.117; -289.790
572.999;   -0.458; -280.117; -168.788
573.277;  107.838;  379.894;  620.191
573.555;  465.441;   94.894;   37.190
573.834; 2289.066;  -86.117; -114.788
574.112; 2576.401;  880.893;  811.193
574.390;  783.612; -143.111;  -96.801
574.668;   34.269;  -91.112;  -61.797
574.946;   23.191; -165.106; -187.810
575.224;   21.702;   71.891;  -16.803
575.502;   -0.220; -200.116; -204.791
575.780;  -57.530; -767.112; -829.798
576.058;  219.261; 1589.889; 1004.200
576.336;   -6.457; -210.110; -129.801
576.614;  -46.554; -511.112; -340.798
576.891;  154.897; -711.115; -823.794
577.169;  832.341; -158.108; -285.805
577.447;  936.526;  169.893;  202.193
577.725;  362.426;  629.888;  854.201
578.003;   42.174;  -71.112; -371.798
578.280;  140.057; -208.104; -242.812
578.558;  113.270; -450.115; -422.793
578.836;  169.280; -210.114; -145.795
579.114;   91.319; -630.112; -670.797
579.391;   78.269;   -6.117;  -18.789
579.669;  -37.777; -595.114; -704.794
579.947;  287.872; -326.107; -127.806
580.224;  585.547; -692.107; -524.806
580.502;  511.627;  127.893;   76.193
580.779;   42.626;  -42.117;   75.210
581.057;  -65.943; -584.109; -470.804
581.334;  -75.351; -726.102; -695.815
581.612;   30.517;   54.895;  511.190
581.889;   -6.860;  -83.101; -129.818
582.167;  -32.943; -298.099; -190.821
582.444;  -72.916; -845.102; -814.817
582.721;  105.785;  657.899;  715.183
582.999;  108.929; -326.100; -167.821
583.276;  939.662; -812.123; -713.779
583.553; 1239.653; -364.102; -294.816
583.831;  449.528; -607.104; -631.812
584.108;   76.788;  349.892;  174.195
584.385;   59.399; -122.102;  -98.815
584.662;  -36.486; -651.111; -828.801
584.940;   54.938;  204.889;  204.199
585.217;   11.663;  -73.113; -303.796
585.494;   60.249;   71.890;  118.198
585.771;  348.258; -250.109; -354.804
586.048;  796.288; -196.113;  -76.796
586.325;  542.567; -721.110; -773.801
586.602;  114.557;  230.896;  213.188
586.879;   35.550; -499.100; -580.820
587.156;   93.243; -156.105; -331.810
587.433;   18.906; -701.102; -667.817
587.710;  108.221;  152.888;  234.202
587.987;  473.449; -264.105; -236.811
588.264; 1147.573;  315.888;  387.202
588.541; 1963.835;  -61.104;   26.187
588.818; 4026.535;   72.892;  171.196
589.095; 3425.230; -163.104; -174.812
589.371;  580.380; -459.109; -414.804
589.648;   60.901; -581.107; -437.807
589.925;   81.831; -517.114; -621.795
590.202;  102.646; -741.112; -607.798
590.478;  149.626; -166.105;  -73.811
590.755;  426.367; -241.108; -132.806
591.032; 3809.994; -741.110; -699.802
591.308; 5406.642; -732.094; -790.831
591.585; 2759.344; -573.110; -560.802
591.862;  328.633;-1056.102; -950.817
592.138;  153.815; -475.108; -474.805
592.415;  262.333; -486.104; -495.813
592.691; 2135.530;  460.896;  518.188
592.968; 2860.396; -208.098; -123.824
593.244; 1370.628; -695.116; -595.790
593.521;  131.459; -105.102;  -42.817
593.797;   39.041; -810.122; -720.780
594.074;  535.686; -611.096; -588.826
594.350;  952.500;  828.905;  729.172
594.626;  488.414; -303.111; -283.801
594.903;  237.434; -643.101; -645.817
595.179;  289.588;  243.896;  418.187
595.455;   44.203; -136.107; -150.807
595.731;    9.014;  -19.103;  -38.814
596.008;  -18.343; -464.111; -434.800
596.284;   74.353; -187.100; -242.820
596.560;  146.850; -501.093; -493.833
596.836;  345.970; -173.105;  -70.810
597.112;  592.165; -582.108; -437.805
597.388;  474.684;  -49.097;  -48.826
597.665;  159.391;  437.887;  530.203
597.941;  -27.590; -572.089; -658.839
598.217;   52.448; -323.110; -293.802
598.493;  432.734;   61.891; -204.804
598.769;  841.796; -175.100;  -50.819
599.045;  528.244; -490.108; -562.806
599.321;  116.051; -193.100; -261.820
599.597;  280.959; -355.109; -476.804
599.872;  751.535;  409.896;  429.187
600.148;  600.186;  -61.097; -172.826
600.424;  448.175;   91.893;  202.193
600.700;  409.927; -170.107; -280.807
600.976;  245.804; -442.097; -464.825
601.252;  415.080; -226.109; -272.803
601.527;  408.836; -833.104; -840.813
601.803;  281.652; -453.105; -404.812
602.079;  300.921; -124.100; -118.819
602.354;  904.561; -620.092; -531.835
602.630; 1306.763; -140.113; -482.796
602.906; 3525.640; -910.101; -863.818
603.181;10667.429; -627.119; -534.786
603.457; 8977.508;   98.903; -278.826
603.733; 1330.009; -605.120; -626.783
604.008; 1457.942; -245.106; -164.810
604.284; 4784.061; -636.101; -580.817
604.559; 4138.776;   -3.112;  -42.799
604.835;  757.020; -163.105; -225.810
605.110;  707.583; -732.099; -892.821
605.385; 1055.278;  224.907;  267.167
605.661; 1070.903; -625.095; -729.829
605.936; 2002.144; -664.108; -737.806
606.211; 1613.072;  -17.103; -170.815
606.487;  367.175; -329.114; -376.794
606.762;  106.579; -791.119; -745.786
607.037;   15.245; -501.105; -433.810
607.313;    1.220; -589.096; -574.828
607.588;   24.141; -375.106; -137.810
607.863;   90.065;  -28.101; -143.818
608.138;  253.872;  513.890;  516.198
608.413;  103.412; -576.099; -592.822
608.688;  125.390; -203.108; -267.805
608.964;  365.959; -509.106; -218.809
609.239;  415.717; -107.105; -212.810
609.514;  371.426;  281.895;  240.188
609.789; 1051.557; -187.104; -716.812
610.064; 1356.318; -435.096; -609.827
610.339; 1462.230; -855.109; -799.804
610.614; 1999.077; -131.100; -315.820
610.889; 1086.352;  215.895;  107.188
611.163;  104.453; -407.104; -591.812
611.438;  157.626;   81.886; -167.794
611.713;   71.311; -467.101; -499.817
611.988;  126.963; -144.101; -328.818
612.263;   61.474; -771.102; -717.815
612.538;  305.912;  385.887;  251.204
612.812;  365.304; -832.100; -911.820
613.087;  274.194; -358.098; -338.823
613.362;   -7.322; -497.107; -557.807
613.637;   62.468;  261.897;  138.186
613.911;   33.812; -256.092; -345.835
614.186;  227.051; -249.107; -292.807
614.460; 1198.399; -842.081; -758.854
614.735; 1320.412;  -55.087;  -17.843
615.010;  270.675;   43.912;  -82.841
615.284;  351.714;  360.892;  246.195
615.559;  646.636; -792.092; -955.835
615.833;  474.560;  -76.099;  -87.822
616.108;   34.350; -225.090; -390.837
616.382;  215.964;  274.913;  402.156
616.656;  285.575; -241.090; -232.837
616.931;  780.711; -785.099; -700.822
617.205; 1735.937; -973.104; -979.813
617.480; 1559.112;  -91.125;    6.225
617.754;  306.709; -396.125; -128.774
618.028;   70.949; -369.129; -382.768
618.302;  120.488;   73.892;  -25.805
618.577;  -11.481; -371.103; -518.815
618.851;  -38.424; -399.109; -600.803
619.125;  -29.604; -335.134; -378.759
619.399;    1.262; -244.104; -374.813
619.673;  -23.887; -330.115; -515.792
619.947;  -22.095; -333.114; -448.795
620.222;   11.990; -198.110; -204.801
620.496;   11.832;  -47.121;  -96.782
620.770;   50.097; -187.122;  -93.781
621.044;  299.018;  323.895;  346.190
621.318; 1153.610; -653.120; -614.783
621.592; 1093.707; -430.121; -409.783
621.866;  662.102; -476.112; -572.799
622.140;   85.730; -207.116; -356.791
622.413;   77.132;  138.889;  112.200
622.687;   -0.389; -746.101; -492.817
622.961;   25.038; -130.108; -143.805
623.235;  -19.667; -633.111; -661.800
623.509;  -74.324; -816.105; -848.811
623.783;   25.248;  -12.107;   48.193
624.056;    1.536; -254.120; -280.783
624.330;   93.469;   63.888;   -3.797
624.604;  113.126; -271.116; -355.790
624.877;  121.570;  180.890;   26.198
625.151;  109.349; -249.114; -238.794
625.425;  -16.136; -150.103; -283.814
625.698;  -36.378; -367.119; -374.785
625.972;  -58.952; -799.110; -765.802
626.245;  103.253;  685.884;  484.210
626.519;  -31.134; -426.120; -340.784
626.792;  -17.773; -192.107; -380.807
627.066;  -69.112; -485.122; -662.779
627.339;  -76.207; -736.110; -663.802
627.613;   65.489;  351.880;  148.216
627.886;   84.975;  187.891; -612.803
628.160;   13.309;  312.880; -161.783
628.433;  -77.359; -695.125; -703.775
628.706;  -61.959; -517.120; -615.784
628.979;   49.949;  296.876;  117.223
629.253;  -42.097; -785.119; -833.786
629.526;  629.347; -334.126; -253.772
629.799;  628.057; -641.123; -479.778
630.072;  333.476; -497.128; -516.769
630.346;   17.053;-1115.116;-1080.790
630.619;  756.878; -467.107; -545.808
630.892;  963.409;  709.889;  593.200
631.165;  481.237;  790.896;  679.187
631.438;  -13.527;-1092.112;-1055.798
631.711;   61.236;  453.877;  257.221
631.984;  -24.277; -523.117; -624.789
632.257;  -41.631; -636.117; -681.789
632.530;  -22.552; -412.119; -433.785
632.803;   36.721; -109.115;    7.207
633.076;  -50.797; -360.123; -422.777
633.349;   10.106;  173.872;  121.231
633.622;  -39.554; -187.119; -240.785
633.895; -108.189; -903.120; -823.783
634.167;  -41.500; -496.126; -525.773
634.440;   10.861;  -19.116; -137.792
634.713;   22.677;  -22.119; -120.786
634.986;   94.794;  593.871;  453.233
635.258;  -46.056; -507.115; -597.793
635.531;   98.814;  742.882; -343.788
635.804;  -23.279; -303.117; -318.789
636.077;  -69.069; -830.116; -852.791
636.349;   61.592; -586.115; -474.793
636.622;  451.646; 1695.874; 1392.228
636.894;  423.641; -474.120; -909.784
637.167;  301.489; -836.127; -789.771
637.439;   70.310; -278.128; -213.770
637.712;  -32.452; -312.126; -293.772
637.984;  -67.543; -635.116; -707.791
638.257;  504.279;  515.877;  488.222
638.529;  890.967; -881.125; -924.776
638.802;  392.901; -508.128; -449.769
639.074;  -86.879; -927.122; -952.781
639.346; -110.089; -942.135; -930.757
639.619;    4.833;  -79.142; -319.744
639.891;    6.613;  -83.122; -168.779
640.163;  -57.960; -689.122; -756.780
640.435;   29.268;  273.878;  103.220
640.708;   17.670;  -72.122; -132.780
640.980;   -5.078; -366.122; -362.781
641.252;  254.599;  -25.121;  -71.781
641.524; 2440.676;  580.879;  573.219
641.796; 2653.428;-1094.121; -907.782
642.068;  485.406; -191.121; -300.782
642.340;  -32.167; -486.121; -566.783
642.613;   51.535;  294.880;  323.217
642.885;  -61.163; -787.120; -878.783
643.157;  -16.811; -810.120; -658.784
643.428;   78.167;  170.880;  218.216
643.700;  -58.556; -498.120; -425.784
643.972;  -22.054;  -16.119; -133.785
644.244;  -91.752; -474.119; -559.785
644.516;  -47.000; -250.119; -114.786
644.788;   66.253;  662.881;  548.214
645.060;  -23.020;  -12.119; -124.786
645.332;  -87.668; -525.118; -535.787
645.603;   36.934;  479.882;  342.213
645.875;  -66.014; -334.118; -369.787
646.147;  164.013; 1487.882; 1242.212
646.418;   -0.184; -931.117; -918.788
646.690;  315.518; -714.117; -715.789
646.962;  120.720; -413.117; -451.789
647.233;   -4.503;   15.883;   11.211
647.505;  -99.951; -595.117; -475.790
647.776;   26.627;  328.884;  229.210
648.048;   18.754; -248.116; -418.790
648.320;  -37.319; -752.116; -679.791
648.591; -129.392;-1055.116; -958.791
648.862;  -76.690; -505.116; -577.792
649.134;   12.162;  115.885;  198.208
649.405;    1.715; -661.115; -618.792
649.677;  -19.183; -475.115; -598.793
649.948;   26.294; -181.115; -296.793
650.219;   23.146;  -37.115; -147.793
650.491;  -72.852; -431.114; -520.794
650.762; -119.224; -705.114; -731.794
651.033;  -74.972; -437.114; -424.795
651.304;  -79.545; -743.114; -728.795
651.576;  -29.318; -680.114; -645.795
651.847;  -36.266; -250.113; -140.796
652.118;  -42.363;  -32.113; -189.796
652.389; -102.136; -639.113; -722.796
652.660;  -40.259; -147.113;  -89.797
652.931; -133.007; -897.112; -871.797
653.202;  -68.255; -382.112; -541.798
653.473;  -57.428; -633.112; -533.798
653.744;  279.675; -595.112; -590.798
654.015;  260.252; -356.112; -303.799
654.286;  -39.296; -642.111; -663.799
654.557;  -21.519; -586.111; -521.799
654.828; -133.017;-1114.111;-1088.800
655.099;  -79.364; -404.111; -291.800
655.370;  -76.212; -427.111; -543.801
655.641; -111.435; -656.110; -714.801
655.911;  -91.933; -618.110; -638.801
656.182;   42.994;  437.890;  387.198
656.453;   83.671;  830.890;  746.198
656.724;  -67.201; -466.110; -426.802
656.994;  -61.474; -553.109; -568.803
657.265;  -78.472; -862.109; -873.803
657.536;  -77.995; -500.109; -377.804
657.806;  -98.768; -561.109; -593.804
658.077; -122.915; -866.109; -950.804
658.347;  -80.688; -523.108; -598.805
658.618; -103.936; -646.108; -694.805
658.888;  -20.609;  -41.108;  112.195
659.159;  -72.257; -432.108; -548.806
659.429;   10.971; -292.108; -349.806
659.700;   71.548; -435.107; -390.807
659.970;   29.700; -370.107; -359.807
660.241;   89.502; -754.107; -921.807
660.511;  786.704; -147.107; -174.808
660.781;  221.006; -793.106; -748.808
661.052;  -53.316; -222.106; -381.808
661.322;  -20.514;   21.894;   -9.809
661.592;    6.888;  257.894;  148.191
661.862;  -65.135; -369.106; -382.810
662.133; -109.983; -551.105; -502.810
662.403; -102.955; -770.105; -676.810
662.673;  -44.453; -256.105; -213.811
662.943;  -84.226; -612.105; -551.811
663.213;    4.076;  -85.105;  -81.811
663.483;  -50.897; -593.104; -568.812
663.753;  -40.120; -194.104; -152.812
664.023;   -6.692;   68.896;  -32.813
664.293;  -57.265; -319.104; -126.813
664.563; -100.263; -694.104; -648.813
664.833; -121.361; -743.103; -608.814
665.103; -107.859; -730.103; -793.814
665.373; -114.856; -766.103; -806.814
665.643;  -33.479; -863.103; -918.815
665.913;  104.498; -534.103; -714.815
666.182;  265.650; -685.102; -719.816
666.452;  449.502;  -22.102;  -89.816
666.722;   50.929; -724.102; -784.816
666.992; -118.068; -948.102; -921.817
667.261;  -67.091; -824.102; -808.817
667.531;  270.386;  134.899;   45.183
667.801;  804.163; -440.101; -412.818
668.070;  283.490;  714.899;  697.182
668.340;  -64.507; -883.101; -840.819
668.609;  124.345;  588.900;  301.181
668.879;  -75.753; -490.100; -558.819
669.149;  -66.701; -539.100; -516.820
669.418;  -96.849; -698.100; -726.820
669.688;   -5.271; -482.100; -666.820
669.957;  162.981; -423.099; -546.821
670.226;    8.758; -268.099; -331.821
670.496;  -86.190; -431.099; -635.822
670.765;  -74.538; -418.099; -501.822
671.034; -115.336; -872.099; -828.822
671.304;    1.942;   55.902; -111.823
671.573; -124.806;-1085.098; -957.823
671.842;  132.446; -380.098; -294.823
672.112;  113.873; -692.098; -586.824
672.381;   27.025; -239.098; -214.824
672.650; -106.597;-1005.097;-1021.825
672.919;  -75.420; -631.097; -507.825
673.188;  -62.168; -681.097; -878.825
673.457; -120.641;-1101.097;-1143.826
673.726;  -48.339; -579.096; -646.826
673.995;  -16.862; -533.096; -479.826
674.265;   15.491; -263.096; -333.827
674.534;   42.393; -183.096; -235.827
674.802;   56.345; -618.096; -703.828
675.071; 1448.172; -886.095; -801.828
675.340; 6218.849; -464.095; -339.828
675.609; 2055.552;  103.905;   82.171
675.878;  214.329; -949.095; -893.829
676.147;   73.931;  -26.095;   -8.829
676.416;  164.983; -210.094; -294.830
676.685; 1054.060; 1000.906; -622.830
676.953;  222.313; -603.094; -452.831
677.222;    1.715; -193.094; -273.831
677.491;  -13.908;  -24.094; -127.831
677.759;    9.119;   11.907;  172.168
678.028;   14.696; -279.093; -222.832
678.297;    6.023;   71.907;  197.168
678.565; -130.674; -898.093; -944.833
678.834;  -51.297; -311.093; -268.833
679.102;  -49.420; -411.092; -391.834
679.371; -134.993; -898.092; -727.834
679.639; -129.841; -797.092; -786.834
679.908; -129.888; -794.092; -724.835
680.176; -140.886; -895.091; -941.835
680.445;  -61.159; -346.091; -352.835
680.713;  -14.307;  -58.091;  -23.836
680.982;  -87.705; -523.091; -525.836
681.250; -103.153; -578.091; -507.837
681.518;  -92.625; -534.090; -751.837
681.787;    0.352; -204.090; -167.837
682.055;  -33.846; -490.090; -422.838
682.323; -132.319; -993.090; -992.838
682.591;   69.958; -216.090; -538.838
682.859;  152.386;    9.911;  -35.839
683.128;   39.363;  232.911;  497.161
683.396; -137.710;-1102.089;-1122.840
683.664;  -32.658; -241.089;   21.160
683.932;    4.294;  144.911;  -76.840
684.200;  -65.679; -576.088; -320.841
684.468;  -30.626;  -73.088; -124.841
684.736;  -26.299; -214.088; -175.841
685.004;  -71.622;-1024.088; -982.842
685.272;    2.180; -880.088; -774.842
685.540;  -34.518; -499.087; -557.843
685.808;  -54.165; -651.087; -682.843
686.076;  -68.713; -894.087; -969.843
686.343;  -18.261; -601.087; -815.844
686.611;   74.316; -195.087; -224.844
686.879;  635.143; -530.086; -553.844
687.147; 4985.296; -483.086; -480.845
687.414; 1446.048;  -12.086; -169.845
687.682;   84.600; -658.086; -757.846
687.950;  448.977;  259.915;  263.154
688.217;   91.104; -792.085; -760.846
688.485;   39.831; -632.085; -636.847
688.753;  819.334;  -11.085; -102.847
689.020;  385.461; -820.085; -851.847
689.288;  -64.562; -853.084; -787.848
689.555;  -19.810; -195.084; -148.848
689.823;  -29.008; -241.084; -345.849
690.090;  -64.780; -546.084; -651.849
690.358; -133.403; -877.084; -897.849
690.625;    8.099;  120.917;   45.150
690.892;  -64.074; -403.083; -369.850
691.160;   -0.797;   72.917;  -35.850
691.427;    8.705;  141.917;  130.149
691.694; -109.092; -855.083; -929.851
691.962; -118.815;-1177.082;-1060.852
692.229;   32.562;  127.918;   56.148
692.496;  127.314;  130.918;  -49.852
692.763;   32.466; -164.082; -201.853
693.031;  -34.656; -739.082; -716.853
693.298;   -7.804; -509.081; -368.853
693.565;  433.598; -155.081; -163.854
693.832; 2065.250;   -5.081;   -9.854
694.099;  295.902; -643.081; -642.855
694.366;  -31.445; -882.081; -896.855
694.633;  -21.643; -920.080; -633.855
694.900;  752.534; 4367.920; -114.856
695.167;  645.661; -214.080; -380.856
695.434;  181.488; -646.080; -623.856
695.701;  248.240;  121.921;  -61.857
695.968;  688.168; -365.079; -361.857
696.234; 1177.770; -415.079; -646.858
696.501;11941.797; -776.079; -614.858
696.768; 6593.874; -554.079; -617.858
697.035;  417.201; -632.078; -667.859
697.302;   73.329; -448.078; -552.859
697.568;   41.731; -458.078; -497.859
697.835;  -17.042; -683.078; -624.860
698.102;    3.110; -498.078; -407.860
698.368;   97.637;  384.923;  396.139
698.635;  -12.011;  -47.077; -424.861
698.901;   -6.283; -240.077; -348.861
699.168;  154.644; -534.077; -456.862
699.435;  139.171;  -72.077;  -13.862
699.701;  -88.977; -868.076; -764.862
699.968;   31.950;  144.924; -441.863
700.234;  -86.072; -783.076; -822.863
700.500;  -35.545; -448.076; -539.864
700.767;   -4.893;   -1.075;   26.136
701.033; -106.191;-1015.075; -963.864
701.299;  -46.739; -450.075; -483.865
701.566;  135.864;  950.925;  763.135
701.832;   53.541;  -31.075;  -76.865
702.098;  -63.557;-1054.074;-1034.866
702.365;  -55.705;-1098.074;-1030.866
702.631;   27.972;-1038.074;-1063.867
702.897; 1764.024; -765.074; -676.867
703.163; 3256.602;  348.926;  254.133
703.429;  253.904; -256.073; -273.868
703.695;   10.031; -796.073; -792.868
703.961;   32.633; -214.073; -210.868
704.227;  -21.115; -630.073; -725.869
704.493;  121.138;  613.927;  510.131
704.759;    0.690; -565.072; -540.870
705.025;   48.167; -203.072; -194.870
705.291;   17.919; -666.072; -562.870
705.557;  202.421;  719.928;   34.129
705.823;   79.498; -742.072; -694.871
706.089;  191.026; -307.071; -326.871
706.355;  410.878; -315.071; -244.872
706.620; 5926.780; -776.071; -729.872
706.886; 9808.282; -309.071; -362.873
707.152; 1026.734; -818.070; -973.873
707.418;   51.712;-1153.070;-1186.873
707.683;   38.214; -550.070; -530.874
707.949;   -3.009; -547.070; -578.874
708.215;   20.468; -129.070; -207.874
708.480;   13.695; -520.069; -420.875
708.746;  154.372;   68.931;   28.125
709.011;  -22.625; -578.069; -612.876
709.277;  -53.423; -538.069; -543.876
709.542;  -18.371; -428.069; -387.876
709.808;   -9.219;  -59.068;   89.123
710.073;  -62.792; -577.068; -695.877
710.339;   -7.639; -242.068; -228.877
710.604;  123.538; -780.068; -845.878
710.869;  488.740; -277.068; -366.878
711.135;  -53.083; -715.067; -628.879
711.400;  -67.956; -507.067; -608.879
711.665;  -42.478; -404.067; -479.879
711.931;  -82.576; -661.067; -677.880
712.196;  -92.049; -876.067; -954.880
712.461;  179.153; -402.066; -490.880
712.726;  307.205; -727.066; -771.881
712.991;  -64.668; -647.066; -664.881
713.256;  -29.665; -350.066; -332.882
713.521;  -42.288; -417.065; -381.882
713.787;  -45.286; -454.065; -472.882
714.052;  -18.359; -214.065; -400.883
714.317;  -69.607;-1045.065; -981.883
714.581; 1152.071; -374.065; -268.883
714.846; 1899.523; -822.064; -888.884
715.111;  170.225;  261.936;  257.116
715.376;  -11.223;  -86.064; -223.885
715.641;    8.054; -365.064; -367.885
715.906;  490.656;   15.936; -551.885
716.171;  204.434;  221.937;  209.114
716.436;   72.936;  -78.063; -104.886
716.700;  -89.262; -818.063; -692.886
716.965;  -99.410; -794.063; -807.887
717.230;  -58.033; -339.063; -392.887
717.494;  -16.730;  -40.062; -134.888
717.759;  -67.978; -784.062; -640.888
718.024;   20.499;  269.938;  250.112
718.288;   83.251;  685.938;  395.111
718.553; -121.522; -803.062; -977.889
718.817; -125.744; -883.061; -899.889
719.082;  -31.517; -115.061; -125.890
719.346; -123.965;-1000.061; -947.890
719.611;  -22.313; -300.061; -255.891
719.875; -100.411; -568.060; -537.891
720.140;  -39.959; -453.060; -603.891
720.404;   68.444; -136.060; -249.892
720.668; 1254.196; -475.060; -411.892
720.933;  532.773;  146.940;  137.108
721.197;  -70.025; -667.059; -600.893
721.461; -121.923; -851.059; -826.893
721.725;   -3.695;  -21.059; -250.894
721.990;  -57.593; -284.059; -204.894
722.254;  -19.641;  -26.059; -108.894
722.518;  -61.664; -286.058; -442.895
722.782;  -67.412; -743.058; -594.895
723.046;  161.740;  614.942;  570.105
723.310;   44.518;  374.942;  210.104
723.574; -101.205; -654.058; -614.896
723.838;  -88.678; -576.057; -642.897
724.102;  -42.301; -226.057; -239.897
724.366; -116.299;-1032.057; -978.897
724.630;  -84.021; -749.057; -571.898
724.894;  -52.469; -722.057; -514.898
725.158;   -8.517;   38.944; -295.898
725.422;  -35.415; -394.056; -327.899
725.685;  -44.813; -441.056; -349.899
725.949;  -59.636; -566.056; -519.900
726.213;  -47.008; -732.056; -811.900
726.477;  320.669;-1020.055; -933.900
726.740;  244.421; -274.055; -104.901
727.004;  430.248; -384.055; -510.901
727.268; 4083.825; -442.055; -400.901
727.531; 1332.603; -961.055; -775.902
727.795;  -17.620; -713.054; -673.902
728.059;  -29.793; -552.054; -557.903
728.322;  -53.366; -841.054; -669.903
728.586;  104.761; -692.054; -701.903
728.849;  -55.061; -695.053; -756.904
729.112;  -90.984; -812.053; -912.904
729.376; -103.982; -959.053; -905.904
729.639;  -54.330; -536.053; -536.905
729.903;  -87.353; -733.053; -699.905
730.166;  -44.051; -437.052; -399.906
730.429;   -3.473; -317.052; -468.906
730.693;  -45.571; -355.052; -894.906
730.956;  227.206;  810.948;  651.093
731.219; 1012.358; -310.052; -103.907
731.482;  216.785;-1003.051; -894.907
731.745;  252.988; -794.051; -935.908
732.009;   31.790;  -30.051;   50.092
732.272;  -69.058; -904.051; -771.909
732.535;  -28.706; -300.051; -310.909
732.798; -123.279;-1083.050;-1166.909
733.061;  -49.902; -430.050; -456.910
733.324;   19.851;   31.950; -180.910
733.587;   72.328;  290.950;  365.090
733.850;  -44.795; -973.049;-1050.911
734.113;   58.082;   33.951;   32.089
734.376;   43.409; -328.049; -447.912
734.639;  245.987; 1188.951; 1011.088
734.901;  121.814; -180.049; -402.912
735.164;  727.516; -883.048; -837.913
735.427; 2026.368; -166.048; -355.913
735.690;  197.345; -205.048; -234.913
735.952;   36.573; -923.048; -925.914
736.215;   35.775;-1113.048;-1009.914
736.478;  109.327; -771.047; -774.915
736.740;  314.879;   33.953;  129.085
737.003;  890.431; -658.047; -672.915
737.266; 6096.933;  -94.047;   46.084
737.528;  724.636; -682.047; -660.916
737.791;  437.263; -316.046; -327.916
738.053;  958.465;  465.954;  649.083
738.316;12759.242; -162.046; -136.917
738.578;10755.944; -770.046; -736.918
738.841;  629.747; -382.046; -446.918
739.103;  272.874; -875.045; -777.918
739.365;  731.701;   79.955;  -69.919
739.628;   89.628; -884.045; -805.919
739.890;    6.230; -758.045; -710.919
740.152;    2.057; -692.044; -754.920
740.414;   30.835; -408.044; -359.920
740.677;   -7.338; -785.044; -634.921
740.939;  -23.486; -587.044; -487.921
741.201;  435.566; -432.044; -572.921
741.463;  123.343; -689.043; -745.922
741.725;   42.596;  -21.043; -199.922
741.987;   73.423;  220.957;  116.078
742.249;   83.475; -751.043; -859.923
742.511;  380.427; -703.043; -794.923
742.773;   96.104; -546.042; -546.924
743.035;  149.482;  796.958;  533.076
743.297;   12.509; -963.042;-1013.924
743.559; 1043.661; -278.042; -262.925
743.821;  181.138; -735.042; -744.925
744.083;   45.690;  -44.041; -149.925
744.345;  -50.808; -869.041; -892.926
744.607;   50.820;   75.959;  122.074
744.868;  -22.953; -490.041; -554.927
745.130;  -59.251; -994.041;-1008.927
745.392;   73.051;   -1.040;  -44.927
745.653;   22.903; -411.040; -378.928
745.915;  186.031;  896.960;  631.072
746.177;   93.158;   35.960;  -43.928
746.438;   51.660; -428.040; -543.929
746.700;   20.662; -947.039; -988.929
746.961;   47.714; -659.039; -740.930
747.223;  216.091; -190.039;  -74.930
747.484;  168.719; -391.039; -471.930
747.746;  238.621;  -23.038; -106.931
748.007;  204.373; -647.038; -689.931
748.269;  445.350; -468.038; -440.931
748.530;  784.977; -852.038; -638.932
748.791;  406.330; -354.038; -420.932
749.053;  639.782;  286.963;  163.067
749.314;  677.734; -236.037; -169.933
749.575;  810.611; -945.037; -905.933
749.836; 1224.013; -217.037;   86.066
750.098; 3111.340;  -60.037;  -21.934
750.359;49343.868;  414.964;  555.066
750.620;15315.920; -121.036; -220.935
750.881; 1490.397; -585.036; -513.935
751.142; 1901.299; -950.036; -938.936
751.403;20886.651; -789.036; -705.936
751.664;11259.454;-1034.035; -999.936
751.925;  725.906; -175.035; -262.937
752.186;  426.983; -298.035; -278.937
752.447;  236.535; -590.035; -445.937
752.708;  133.687; -532.035; -648.938
752.969;   73.190; -566.034; -576.938
753.230;   52.892; -777.034; -672.939
753.491;   67.719; -650.034; -631.939
753.751;  118.421;  109.966;   19.061
754.012;  114.098;  258.967;  181.060
754.273;  103.750; -174.033;  -71.940
754.534;   65.428; -487.033; -580.940
754.794;  -35.620; -926.033; -911.941
755.055;  153.582; 1051.967;  881.059
755.316;  -11.566; -700.032; -566.942
755.576;    2.411; -606.032; -576.942
755.837;   -6.836; -527.032; -695.942
756.097;   -9.559; -530.032; -564.943
756.358;  -40.382; -725.032; -770.943
756.618;  -21.655; -705.031; -641.943
756.879;   54.197; -254.031; -349.944
757.139;  -86.926;-1098.031;-1116.944
757.400;  -25.773; -538.031; -553.945
757.660;    1.204; -365.031; -401.945
757.920;   59.356; -266.030; -228.945
758.181;   29.033; -468.030; -351.946
758.441;  -59.140; -870.030; -809.946
758.701;   -9.387; -308.030; -215.946
758.961;  -10.310; -220.030; -278.947
759.222;  -28.408; -574.029; -502.947
759.482;  -48.131; -683.029; -723.948
759.742;  -85.929; -706.029; -547.948
760.002;   26.324;  -83.029; -143.948
760.262;   33.926;   50.972;  182.051
760.522;  -29.872; -498.028; -574.949
760.782;  -44.995; -738.028; -612.949
761.042;   -6.143; -618.028; -573.950
761.302;   58.109;   55.972;  -18.950
761.562;   73.587; -164.027; -154.951
761.822;  144.239; -710.027; -551.951
762.082;   -8.084;-1104.027;-1093.951
762.342;   77.768; -328.027; -403.952
762.601;   98.820; -567.027; -506.952
762.861;  451.348; -281.026; -207.952
763.121;  418.200; -406.026; -411.953
763.381; 6647.952; -499.026; -485.953
763.640; 9109.304; -139.026; -307.954
763.900;  411.506; -242.026; -203.954
764.160;  105.533; -458.025; -491.954
764.419;    3.161; -726.025; -782.955
764.679;  -74.112; -795.025; -726.955
764.939;  -11.860; -124.025; -210.955
765.198;  -64.158; -608.025; -563.956
765.458;  -75.556; -710.024; -612.956
765.717;  -65.578; -454.024; -590.957
765.976;  -58.676; -428.024; -411.957
766.236;  -66.099; -475.024; -610.957
766.495;   33.953;  260.977;   73.042
766.755;  -40.920;-1090.023; -987.958
767.014;   51.407; -594.023; -665.958
767.273;  -45.565; -373.023; -397.959
767.533;  -40.238; -228.023; -307.959
767.792;  -18.136; -151.022; -188.960
768.051;  -48.734; -228.022; -276.960
768.310;  -70.807; -546.022; -650.960
768.569;  -11.179; -161.022;    4.039
768.828;  -25.002; -285.022; -363.961
769.088;  -87.125;-1050.021; -942.961
769.347;  -67.823; -755.021; -599.962
769.606;  -77.446; -876.021; -857.962
769.865; -102.043;-1016.021;-1033.963
770.124;   -3.591; -411.021; -336.963
770.383;  -25.839; -778.020; -910.963
770.641;   14.563; -398.020; -400.964
770.900;  -37.885; -953.020; -846.964
771.159;  -30.333; -851.020; -951.964
771.418;   17.970; -917.020; -779.965
771.677;  139.497; -224.019; -293.965
771.936;  169.399; -794.019; -865.966
772.194; 1923.251; -465.019; -437.966
772.453;12754.903; -213.019; -391.966
772.712;  995.781;  416.982;  329.033
772.970;  153.233;   32.982;   63.033
773.229;  108.960;  -22.018;  102.033
773.488;  -66.988; -814.018; -770.968
773.746;   74.564;  296.982;  335.032
774.005;   19.191;  190.983;  -22.969
774.263;   12.194;  243.983;  177.031
774.522;  -32.054; -422.017; -548.969
774.780;  -91.977; -484.017; -417.970
775.039;  -88.275; -551.017; -531.970
775.297;  -28.848; -135.016; -351.970
775.555;  -91.845; -489.016; -612.971
775.814; -112.168; -618.016; -570.971
776.072; -105.316; -749.016; -740.971
776.330;  -97.189; -630.016; -520.972
776.589; -120.362; -703.015; -721.972
776.847; -117.034; -645.015; -624.973
777.105; -148.007;-1016.015;-1032.973
777.363;  -81.705; -459.015; -454.973
777.621; -125.528; -660.015; -717.974
777.879;  -23.251;  -42.014;   32.026
778.138;  -87.599; -554.014; -717.974
778.396;  -98.946; -585.014; -526.975
778.654; -153.819;-1015.014; -970.975
778.912;  -59.717; -269.014; -371.976
779.170; -106.515; -880.013; -803.976
779.427; -143.888; -922.013; -897.976
779.685; -116.160; -880.013; -832.977
779.943;  -55.683; -654.013; -593.977
780.201; -149.306; -964.012; -883.978
780.459; -111.779; -651.012; -610.978
780.717;  -83.052; -440.012; -390.978
780.974;  -90.800; -449.012; -490.979
781.232;  -55.847; -358.012; -338.979
781.490;  -62.695; -551.011; -472.979
781.747;  -84.543; -555.011; -476.980
782.005;   26.909;  462.989;  254.020
782.263; -142.464; -542.011;-1004.981
782.520;  -75.461; -326.011; -501.981
782.778; -157.184;-1013.010;-1051.981
783.035; -157.182; -962.010; -938.982
783.293;  -58.005; -248.010; -206.982
783.550;  -50.778; -134.010; -198.982
783.808; -109.950; -764.010; -776.983
784.065; -146.348; -745.009; -874.983
784.322;  -41.871;   25.991;  -86.984
784.580; -124.344; -915.009; -771.984
784.837;  -87.117; -392.009; -466.984
785.094; -110.390; -783.009; -762.985
785.352;  -45.837; -304.008; -404.985
785.609;  -76.435; -934.008; -839.985
785.866;  -67.408; -345.008; -401.986
786.123;  -28.631; -639.008; -583.986
786.380;  -71.204; -665.008; -604.987
786.637;  -44.951; -225.007; -380.987
786.895;   20.601; -456.007; -543.987
787.152;  -49.997; -135.007; -267.988
787.409;  -46.270; -123.007; -225.988
787.666;  -77.243; -299.006; -378.988
787.923;  -98.041; -616.006; -695.989
788.179; -100.813; -551.006; -584.989
788.436;  -89.461; -585.006; -585.990
788.693;  -27.459;  -92.006;  -87.990
788.950;  179.343; -125.005; -112.990
789.207;  461.520; -381.005; -372.991
789.464;  -20.227; -161.005; -301.991
789.720;   -5.375;  150.995;  110.009
789.977; -144.648;-1003.005; -671.992
790.234;  -39.071;   44.996;  -66.992
790.490; -136.469; -884.004;-1031.993
790.747;  -14.692;  -85.004;   22.007
791.004;   10.261; -426.004; -348.993
791.260;  -67.887; -430.004; -560.994
791.517;  -90.110; -843.003; -788.994
791.773;  -24.208; -379.003; -342.994
792.030; -101.656; -596.003; -660.995
792.286;  -95.303; -686.003; -636.995
792.543;   -7.001;  -74.002; -159.995
792.799;  -52.899; -584.002; -382.996
793.055; -145.397;-1179.002;-1210.996
793.312;  -84.945; -827.002; -816.997
793.568;  -46.317; -746.002; -599.997
793.824;   29.010; -226.001; -284.997
794.081;   51.412; -447.001; -508.998
794.337;   70.139; -664.001; -561.998
794.593; 1124.991; -319.001; -271.999
794.849; 7507.993; -746.001; -772.999
795.105;  486.221; -270.000; -261.999
795.361;   32.048; -490.000; -457.000
795.617;  -27.175; -875.000; -945.000
795.873;  -30.875; -360.000; -407.000
796.129;  -18.350; -368.000; -306.000
796.385;  -16.425; -124.000; -156.000
796.641;   65.325;  412.000;  550.000
796.897;  -71.650; -666.000; -635.000
797.153;   80.525;  453.000;  357.000
797.409;  -86.200; -785.000; -868.000
797.665;  -57.625; -625.000; -732.000
797.921;  -57.575; -775.000; -762.000
798.176;  -23.550; -744.000; -747.000
798.432;  -26.925; -824.000; -596.000
798.688;  -24.850;-1174.000;-1078.000
798.943;   96.175; -165.000; -147.000
799.199;   32.925;-1005.000; -959.000
799.455;  256.475;  369.000;  316.000
799.710;  181.950; -813.000; -380.000
799.966;  378.725; -162.000; -160.000
800.221;  557.325; -638.000; -721.000
800.477;10929.300; -743.000; -710.000
800.732;12709.975; -773.000; -800.000
800.988;  754.875;  205.000;  -19.000
801.243; 1431.525; -454.000; -344.000
801.498; 7912.325; -814.000; -739.000
801.754;  570.300; -289.000; -163.000
802.009;   98.425; -257.000; -335.000
802.264;  -13.150; -967.000;-1033.000
802.520;   26.375;  222.000;   -3.000
802.775;  -31.600; -524.000; -359.000
803.030;   39.450;  395.000;  356.000
803.285;  -98.175; -840.000; -903.000
803.540;  -47.375; -686.000; -699.000
803.795;   -4.000; -648.000; -583.000
804.051;  -28.325; -279.000; -346.000
804.306;   49.025;  168.000;  128.000
804.561;  200.050;  451.000;  362.000
804.816;  147.400;  714.000;  861.000
805.071;   14.350; -185.000; -280.000
805.325;  350.875; -257.000; -427.000
805.580;  -75.725; -841.000; -877.000
805.835;    1.500; -204.000; -297.000
806.090;  -63.225; -760.000; -676.000
806.345;  -14.800; -344.000; -264.000
806.600;  -10.175; -549.000; -632.000
806.854;   -6.525; -408.000; -538.000
807.109;    8.475; -493.000; -577.000
807.364;   31.125; -407.000; -328.000
807.618;   15.825; -415.000; -381.000
807.873;   92.925; -470.000; -494.000
808.128;  139.800; -257.000; -518.000
808.382;  140.275; -224.000; -332.000
808.637;  107.575; -440.000; -511.000
808.891;  219.800; -257.000; -180.000
809.146;  157.250; -902.000; -794.000
809.400;  350.150; -848.000; -923.000
809.654;  429.925; -779.000; -551.000
809.909;  606.600; -841.000; -927.000
810.163; 6933.875; -813.000; -651.000
810.418;23984.625; -940.000; -861.000
810.672; 1424.250; -685.000; -690.000
810.926;  764.625; -993.000; -973.000
811.180; 1259.800; -439.000; -372.000
811.434;26678.700;  240.000;  135.000
811.689;14386.425; -231.000; -365.000
811.943;  754.825; -936.000; -953.000
812.197;  349.900; -893.000; -671.000
812.451;  152.100; -379.000; -514.000
812.705;  -14.150; -809.000; -619.000
812.959;   -0.700; -263.000; -388.000
813.213;   -4.625; -283.000; -209.000
813.467;   81.300;  470.000;  253.000
813.721;  -86.800; -764.000; -792.000
813.975; -100.350; -826.000; -877.000
814.229;   38.475;  430.000;  353.000
814.482;  -35.100; -517.000; -566.000
814.736; -103.150; -766.000; -744.000
814.990; -122.125; -779.000; -872.000
815.244;  -26.250; -228.000; -285.000
815.497;  -76.250; -636.000; -601.000
815.751;   -5.200; -141.000;   82.000
816.005;  -64.850; -470.000; -586.000
816.258;  -71.875; -510.000; -363.000
816.512;  -95.250; -693.000; -610.000
816.766;   11.700;  121.000;  157.000
817.019;   33.950;  148.000;  149.000
817.273;  -89.075;-1000.000; -802.000
817.526;   -2.075; -206.000; -173.000
817.779;   14.725;-1049.000; -960.000
818.033;  -12.175; -693.000; -807.000
818.286; -109.550; -725.000; -792.000
818.540;  -86.700; -403.000; -403.000
818.793;  -65.500; -402.000; -489.000
819.046;  -84.400; -582.000; -520.000
819.299;  -34.325; -157.000; -166.000
819.553; -110.275; -552.000; -592.000
819.806; -151.450;-1016.000; -838.000
820.059;  -57.200; -334.000; -354.000
820.312;   14.275;  152.000;  185.000
820.565;  -24.300;  110.000;  -27.000
820.818;  -38.125;  -59.000; -173.000
821.071; -155.650;-1041.000; -957.000
821.324;  -97.450; -536.000; -540.000
821.577;  -95.150; -457.000; -483.000
821.830;  -66.850; -270.000; -172.000
822.083; -118.050; -733.000; -288.000
822.336;  -44.075; -261.000; -167.000
822.589; -119.725; -805.000; -688.000
822.842; -126.200; -875.000; -770.000
823.094; -155.825;-1076.000;-1114.000
823.347; -106.300; -925.000; -729.000
823.600;   15.850;  402.000;  187.000
823.853;  -39.300; -311.000; -267.000
824.105;  -65.475; -331.000; -575.000
824.358;  -96.650; -617.000; -716.000
824.611;   32.300;  234.000;   40.000
824.863;  -26.400; -612.000; -591.000
825.116;   72.075;  -33.000;   27.000
825.368;  140.425; -366.000; -372.000
825.621;  227.875; -186.000; -240.000
825.873;  156.425; -704.000; -737.000
826.126;  655.200; -669.000; -641.000
826.378;13818.200; -389.000; -505.000
826.630; 4772.675; -890.000; -898.000
826.883;  122.875; -754.000; -693.000
827.135;   88.575; -279.000; -270.000
827.387;  -88.375; -893.000; -839.000
827.639;  -25.250;  -86.000;   32.000
827.892; -112.950; -742.000; -582.000
828.144; -133.825; -848.000; -804.000
828.396;  -27.625;  104.000;  -80.000
828.648;  -72.850; -440.000; -333.000
828.900; -139.950; -702.000; -795.000
829.152; -101.750; -684.000; -683.000
829.404;  -54.300; -215.000; -267.000
829.656;   -0.875;  321.000;  214.000
829.908;  -26.975;  393.000;  229.000
830.160; -153.500;-1064.000;-1047.000
830.412;  -86.150; -481.000; -430.000
830.664; -111.525; -557.000; -665.000
830.916;  -78.300; -268.000; -206.000
831.167; -158.725;-1073.000; -951.000
831.419; -113.775; -623.000; -566.000
831.671; -133.775; -764.000; -809.000
831.923;  -77.400; -311.000; -447.000
832.174;  -77.950; -273.000; -331.000
832.426; -114.450; -493.000; -582.000
832.678; -174.025;-1043.000;-1091.000
832.929; -156.375; -947.000; -935.000
833.181;  -35.225; -575.000; -677.000
833.432;  -38.350;  -59.000; -186.000
833.684;  -10.400;  112.000;  -27.000
833.935; -109.500; -610.000; -566.000
834.187; -112.650; -829.000; -823.000
834.438;  -35.900;  -58.000;  -25.000
834.689;  -40.975; -255.000; -123.000
834.941;  -46.025; -343.000; -244.000
835.192;  -68.575; -590.000; -533.000
835.443;  -78.150; -419.000; -506.000
835.695;   -3.500;  138.000;  -16.000
835.946;  -79.150; -608.000; -378.000
836.197;  -88.800; -599.000; -622.000
836.448;  -74.875; -528.000; -395.000
836.699;  -35.675; -253.000; -341.000
836.950;    2.325;   72.000;    7.000
837.201; -126.725;-1003.000; -987.000
837.452;  -31.600; -356.000; -170.000
837.703;  -85.475; -791.000; -737.000
837.954;  -31.900; -205.000; -365.000
838.205;  -49.075;-1029.000;-1008.000
838.456;  275.250; -196.000; -282.000
838.707;   60.175; -423.000; -519.000
838.958;   59.650; -634.000; -647.000
839.209;  430.775;   18.000;   40.000
839.460;  190.500; -439.000; -201.000
839.710;  240.400; -135.000; -297.000
839.961;  544.275;  730.000;  612.000
840.212;  457.225; -382.000; -497.000
840.462; 1309.450; -328.000; -277.000
840.713;20524.975; -571.000; -536.000
840.964;11259.700;  -62.000; -143.000
841.214;  755.675; -384.000; -624.000
841.465;  763.400; -214.000; -141.000
841.715;  716.100; -417.000; -380.000
841.966;  898.200; -746.000; -685.000
842.216; 9432.125; -330.000; -431.000
842.466;46849.800; -169.000; -313.000
842.717; 3685.550; -964.000; -952.000
842.967;  457.200; -635.000; -641.000
843.217;  399.500;   20.000;   28.000
843.468;  117.800; -104.000; -132.000
843.718;    5.125; -718.000; -726.000
843.968;  -52.100; -837.000; -765.000
844.218;   67.025; -315.000; -262.000
844.469;   -6.650; -577.000; -561.000
844.719;  -93.075; -537.000; -682.000
844.969;  -84.650; -550.000; -580.000
845.219; -129.400; -814.000; -862.000
845.469;  -74.375; -392.000; -342.000
845.719; -118.625; -792.000; -884.000
845.969;  -13.675;  119.000;  174.000
846.219;  -99.100; -738.000; -720.000
846.469;   26.550;  464.000;  432.000
846.718;  -33.775; -115.000;   31.000
846.968; -116.450; -827.000; -827.000
847.218;  -38.200; -224.000; -371.000
847.468;    8.750; -586.000; -555.000
847.718; -130.275; -827.000; -798.000
847.967; -120.375; -826.000; -915.000
848.217;  -76.100; -449.000; -569.000
848.467;  -49.000; -405.000; -376.000
848.716; -104.450; -708.000; -725.000
848.966;   28.475; -372.000; -358.000
849.215;  -39.275; -428.000; -419.000
849.465;  -78.025; -785.000; -615.000
849.714; -114.475;-1132.000;-1150.000
849.964;  -38.200; -551.000; -613.000
850.213;   -4.425; -393.000; -355.000
850.463;   86.750;  137.000;  340.000
850.712;   38.100; -542.000; -567.000
850.961;   50.475; -739.000; -678.000
851.211;  176.675; -513.000; -504.000
851.460;  249.300; -635.000; -650.000
851.709;  686.825;  -25.000;   18.000
851.958;11278.900; -912.000; -750.000
852.208;18670.100; -859.000; -879.000
852.457;  780.625; -181.000;  -13.000
852.706;  146.750; -791.000; -823.000
852.955;   83.900; -507.000; -528.000
853.204;  -46.825; -521.000; -461.000
853.453;  -75.850; -418.000; -458.000
853.702; -119.150; -660.000; -750.000
853.951;  -97.350; -532.000; -520.000
854.200;  -92.975; -613.000; -562.000
854.449; -112.900; -695.000; -661.000
854.698;  -92.775; -340.000; -279.000
854.946;  -69.750; -181.000; -284.000
855.195; -139.500; -843.000; -868.000
855.444;  -90.150; -395.000; -420.000
855.693; -123.200; -345.000; -432.000
855.941;  -99.650; -387.000; -516.000
856.190;  -39.250; -256.000; -382.000
856.439; -125.875; -652.000; -703.000
856.687;  -52.225;  -99.000;  -72.000
856.936; -106.825; -621.000; -323.000
857.184; -160.700;-1067.000;-1020.000
857.433;  -92.200; -423.000; -512.000
857.681; -143.050; -989.000; -953.000
857.930;  -75.975; -282.000; -433.000
858.178; -153.800; -856.000; -929.000
858.427; -139.625; -802.000; -781.000
858.675; -116.900; -377.000; -544.000
858.923; -106.075; -527.000; -819.000
859.172; -171.600;-1094.000;-1070.000
859.420;  -94.100; -339.000; -239.000
859.668; -121.575; -624.000; -628.000
859.916;  -15.025;  109.000;  115.000
860.164;  -98.375; -699.000; -603.000
860.413;  426.550; -878.000; -696.000
860.661;  512.500; -709.000; -577.000
860.909;  -76.250; -339.000; -325.000
861.157;  -73.650; -277.000; -444.000
861.405; -109.875; -534.000; -670.000
861.653;    5.450;  310.000;  310.000
861.901;  264.500; -543.000; -613.000
862.149;  136.875; -801.000; -824.000
862.396;  -69.050; -297.000; -187.000
862.644;  -89.575; -368.000; -347.000
862.892;  -38.450;   98.000;  138.000
863.140; -118.925; -549.000; -530.000
863.388; -160.050; -815.000; -759.000
863.635; -124.400; -642.000; -601.000
863.883;   -6.050;  231.000;  190.000
864.131;  -89.775; -288.000; -357.000
864.378; -124.950; -675.000; -540.000
864.626;  -98.425; -347.000; -415.000
864.873; -110.775; -556.000; -505.000
865.121; -131.800; -714.000; -799.000
865.368;  -54.500; -173.000;   75.000
865.616;  -36.125;  -33.000;  -40.000
865.863;  -68.100; -462.000; -506.000
866.111;  -88.525; -795.000; -824.000
866.358;   39.250; -426.000; -420.000
866.605; 2117.450;  -64.000; -804.000
866.853; 2919.750; -621.000; -537.000
867.100;   10.300; -728.000; -775.000
867.347;  -83.675; -672.000; -611.000
867.594;  -66.350; -740.000; -714.000
867.841;  151.525;   97.000;   17.000
868.089; -124.975; -746.000; -698.000
868.336; -108.100; -477.000; -420.000
868.583; -132.875; -637.000; -741.000
868.830;  -57.250; -131.000; -170.000
869.077; -152.800; -859.000; -787.000
869.324; -120.100; -502.000; -458.000
869.571; -131.725; -398.000; -430.000
869.818; -106.025; -485.000; -439.000
870.065;  -89.075; -439.000; -513.000
870.311; -109.225; -456.000; -542.000
870.558;  -95.200; -332.000; -311.000
870.805;  -92.050; -320.000; -384.000
871.052; -109.450; -494.000; -369.000
871.298;  -43.825; -204.000; -131.000
871.545;  -57.525; -151.000; -185.000
871.792;  -93.550; -173.000; -222.000
872.038;  -46.550;   43.000; -126.000
872.285; -120.150; -496.000; -387.000
872.532;  -84.600; -357.000; -387.000
872.778;   -0.800;  556.000;  403.000
873.025;  -92.300; -384.000; -359.000
873.271;   15.050;  501.000;  578.000
873.517;   -7.200; -133.000; -209.000
873.764;   -6.725; -193.000;  -80.000
874.010;  -48.550; -143.000; -230.000
874.257;  -47.700;  123.000;   90.000
874.503; -112.400; -579.000; -479.000
874.749;  -64.700;   31.000;  275.000
874.995;  -58.325;  -80.000;  -20.000
875.242; -102.500; -540.000; -478.000
875.488; -109.325; -414.000; -439.000
875.734;  -56.925; -106.000; -234.000
875.980;  299.425; -872.000;-1032.000
876.226;  718.750; -157.000; -255.000
876.472;   11.125;  343.000;  237.000
876.718;  -41.750;  184.000;  158.000
876.964;  -36.975;   56.000;   55.000
877.210; -143.125; -547.000; -677.000
877.456; -131.525; -630.000; -557.000
877.702; -175.650; -821.000; -832.000
877.948; -103.450; -377.000; -497.000
878.193;    8.775;  361.000;  255.000
878.439;  -66.000; -487.000; -472.000
878.685;  -93.075; -272.000; -343.000
878.931; -128.200; -618.000; -676.000
879.176;  -95.050; -201.000; -201.000
879.422; -173.700; -933.000; -820.000
879.668;   41.925;   10.000;   79.000
879.913;  250.925;   53.000;  137.000
880.159;  -42.725; -112.000;  -17.000
880.404;  -46.775; -152.000; -162.000
880.650;  -32.575;   91.000;  141.000
880.895; -151.475; -670.000; -710.000
881.141; -129.425; -454.000; -428.000
881.386; -139.875; -503.000; -658.000
881.631;  -82.700; -311.000; -166.000
881.877;  -24.200;  112.000;  -13.000
882.122; -140.550; -684.000; -600.000
882.367;  -77.925; -136.000; -186.000
882.612;  -77.375;  -80.000; -176.000
882.858; -163.675; -877.000; -823.000
883.103; -103.600; -297.000; -267.000
883.348; -148.325; -759.000; -852.000
883.593; -136.625; -677.000; -602.000
883.838;  -44.350; -311.000;  -24.000
884.083;   44.200;  353.000;  288.000
884.328;  -88.325; -564.000; -545.000
884.573;  -42.925; -196.000; -143.000
884.818;  283.075; -694.000; -531.000
885.063;  422.050; -348.000; -315.000
885.308;  -85.325; -475.000; -398.000
885.553;  -13.600;  245.000;  325.000
885.797; -124.950; -545.000; -615.000
886.042;  -48.225;    8.000;   58.000
886.287;  -96.300; -253.000; -211.000
886.532;  -48.425;   26.000;  204.000
886.776; -103.900; -407.000; -525.000
887.021; -146.900; -621.000; -574.000
887.265; -147.525; -685.000; -689.000
887.510; -128.700; -557.000; -496.000
887.755;  -92.425; -194.000; -164.000
887.999; -144.850; -552.000; -575.000
888.244;  -41.425;  -58.000;  161.000
888.488;  -16.450;  371.000;  393.000
888.732; -121.800; -368.000; -520.000
888.977; -124.075; -622.000; -567.000
889.221; -128.900; -683.000; -659.000
889.465; -123.200; -422.000; -566.000
889.710;  -69.800;  -56.000; -299.000
889.954;   -0.500;  579.000;  467.000
890.198; -141.125; -584.000; -707.000
890.442; -153.650; -716.000; -712.000
890.687; -159.050; -800.000; -753.000
890.931; -101.500; -273.000; -210.000
891.175; -125.400; -502.000; -500.000
891.419;  -78.475; -105.000; -110.000
891.663;  -85.900; -239.000; -112.000
891.907; -163.450; -801.000; -545.000
892.151; -162.575; -920.000; -815.000
892.395; -103.425; -274.000; -387.000
892.638;  -36.950;  408.000;  291.000
892.882; -179.825; -780.000; -867.000
893.126;   11.825;  758.000;  558.000
893.370;  -80.950; -167.000; -168.000
893.614; -133.325; -714.000; -715.000
893.857; -108.700; -183.000; -197.000
894.101; -119.550; -527.000; -631.000
894.345;  -59.175;  300.000;  150.000
894.588;   10.250;  569.000;  380.000
894.832; -107.975; -178.000;  -84.000
895.075;  -67.275;   15.000;  -92.000
895.319; -128.475; -552.000; -420.000
895.563; -104.725; -413.000; -353.000
895.806; -153.625; -628.000; -741.000
896.049;  -32.200; -576.000; -368.000
896.293;  144.450;  527.000;  405.000
896.536;  -22.600; -465.000; -468.000
896.779;  -39.950; -149.000;   -1.000
897.023; -126.400; -751.000; -714.000
897.266;  -28.825;  325.000;  269.000
897.509; -174.350; -900.000; -901.000
897.752;  -44.100;  149.000;  171.000
897.996; -174.400; -972.000; -864.000
898.239;  -53.025;  168.000;  102.000
898.482; -129.400; -431.000; -453.000
898.725;  -20.625;  101.000;   53.000
898.968; -133.150; -609.000; -744.000
899.211; -101.300; -513.000; -361.000
899.454; -100.550; -633.000; -539.000
899.697;  -73.625;   90.000;  -43.000
899.940; -167.050; -761.000; -757.000
900.182;  -99.300; -335.000; -405.000
900.425;  -84.300; -150.000; -298.000
900.668;  -22.150;  491.000;  350.000
900.911; -108.000; -292.000; -345.000
901.154;  -60.075;  141.000;   -3.000
901.396; -127.075; -407.000; -412.000
901.639; -141.000; -430.000; -496.000
901.882; -158.775; -790.000; -809.000
902.124;  -73.775;  -29.000; -143.000
902.367; -110.950; -315.000; -361.000
902.609; -127.550; -476.000; -453.000
902.852;  -85.450; -108.000; -260.000
903.094; -114.275; -458.000; -337.000
903.337;  -62.925;  -26.000;   53.000
903.579; -112.850; -228.000; -441.000
903.821; -144.550; -597.000; -744.000
904.064;  -55.200;   85.000;  127.000
904.306;  -84.825; -126.000; -166.000
904.548; -100.575; -152.000; -366.000
904.790;  -84.825; -195.000; -340.000
905.033; -129.900; -625.000; -577.000
905.275; -130.250; -513.000; -524.000
905.517;   50.575;  468.000;  256.000
905.759;   -3.625; -667.000; -761.000
906.001;  -85.975; -322.000; -369.000
906.243;  -44.600; -162.000; -224.000
906.485;  175.250; -265.000; -207.000
906.727;  292.625; -499.000; -542.000
906.969;    3.225;  -30.000; -135.000
907.211;  209.050; -316.000; -382.000
907.453;  473.675; -188.000; -237.000
907.695;  112.750; -158.000; -385.000
907.936;   46.750;  818.000;  706.000
908.178;  -47.825;   92.000; -135.000
908.420;  -66.450; -111.000; -162.000
908.662; -130.325; -633.000; -682.000
908.903;  -91.575; -208.000; -123.000
909.145;  -63.825; -240.000; -305.000
909.386;   -0.250;  315.000;  280.000
909.628;   44.725;  363.000;  397.000
909.870;    7.200;   29.000;  264.000
910.111;  -86.275; -809.000; -949.000
910.353;    4.100; -123.000; -161.000
910.594;    4.825; -574.000; -606.000
910.835;   84.775; -265.000; -326.000
911.077;  182.225; -503.000; -604.000
911.318;  311.000; -505.000; -471.000
911.559;  482.175; -577.000; -880.000
911.801; 1275.400; -284.000; -280.000
912.042; 9122.400;  -50.000; -159.000
912.283;28921.950;  404.000;  371.000
912.524; 5929.050; -396.000; -457.000
912.765;  591.825; -193.000;   79.000
913.006;  291.775; -307.000; -338.000
913.247;   79.625; -270.000; -290.000
913.488;   -3.650;  -43.000;   30.000
913.729;  -72.675; -373.000; -373.000
913.970;  -49.025;  -96.000; -292.000
914.211;  -69.025; -160.000; -198.000
914.452;  -37.975; -118.000;  -11.000
914.693;    3.950;  510.000;  592.000
914.934;    4.700;  510.000;  440.000
915.175;  -44.950;   53.000;  -95.000
915.415;  -72.075; -137.000;   27.000
915.656;  -58.700;  -28.000;  192.000
915.897;  -88.825; -252.000;  -82.000
916.137;  -61.275;   74.000;   -9.000
916.378; -125.525; -573.000; -517.000
916.619;  -84.250; -159.000;  -63.000
916.859;  -25.950;  303.000;  330.000
917.100;  123.550; 1655.000; 1070.000
917.340;   39.500;  930.000;  728.000
917.581;   56.950;  965.000;  789.000
917.821;    2.900; -171.000;  143.000
918.061;   77.600; -199.000;  -72.000
918.302;  -43.075; -152.000; -211.000
918.542;  -17.900;  -22.000;    3.000
918.782;   54.275;  369.000;  377.000
919.023;  160.025;  360.000;  427.000
919.263; 1496.600; 8131.000;  202.000
919.503; 1715.900; -137.000;  -54.000
919.743;  924.300;  390.000;  266.000
919.983;  502.700; -134.000;  -26.000
920.223;  137.775;  135.000;   14.000
920.463;  161.350;  631.000;  554.000
920.703;  181.375;   84.000;   39.000
920.943;  225.025; -110.000;   90.000
921.183;  282.775; -414.000; -405.000
921.423;  597.775;  307.000;  546.000
921.663;  869.875; -174.000; -257.000
921.903; 1773.400;  237.000;  173.000
922.143; 9151.075;  372.000;  389.000
922.383;38215.450;  158.000;  115.000
922.622;17116.600; -120.000;  -15.000
922.862; 1750.475;  796.000;  785.000
923.102;  633.150;  -51.000;   33.000
923.341;  285.175;   59.000;   74.000
923.581;  128.675;  450.000;  360.000
923.821;   40.525;  301.000;  398.000
924.060;   14.275;  351.000;  193.000
924.300;  -36.575;  -16.000; -128.000
924.539;    0.900;  584.000;  473.000
924.779;   21.100;  812.000;  597.000
925.018;  -43.975;  247.000;  353.000
925.257;    0.875;  595.000;  666.000
925.497;  -41.275;  447.000;  412.000
925.736;  -75.925;  -35.000;  102.000
925.975;   -5.075;  687.000;  669.000
926.214;   28.425;  907.000;  850.000
926.454;   13.825;  706.000;  757.000
926.693;  -29.225;  419.000;  543.000
926.932;   46.300; 1021.000;  825.000
927.171;   50.700; 1107.000; 1044.000
927.410;   59.750; 1144.000;  967.000
927.649;   20.100;  924.000;  742.000
927.888;    1.650;  590.000;  564.000
928.127;  -15.275;  680.000;  678.000
928.366;   41.500;  842.000;  826.000
928.605;   55.400;  831.000;  737.000
928.844;  256.450; 1451.000; 1393.000
929.083;  802.450;  770.000;  613.000
929.321;  489.950; 1335.000; 1359.000
929.560;   90.875; 1158.000; 1122.000
929.799;  -18.475;  574.000;  475.000
930.038;   89.900; 1025.000; 1394.000
930.276;  -31.500;  334.000;  397.000
930.515;   -4.900;  827.000;  681.000
930.753;  -28.175;  614.000;  589.000
930.992;  -29.425;  664.000;  717.000
931.230;   13.050;  847.000;  847.000
931.469;  162.425; 2162.000;  892.000
931.707;   66.150;  840.000;  751.000
931.946;   71.875; 1278.000; 1344.000
932.184;   68.675; 1437.000; 1175.000
932.423;   51.150; 1265.000;  963.000
932.661;  117.125; 1296.000; 1428.000
932.899;   51.575;  987.000;  821.000
933.137;   36.550;  754.000;  564.000
933.376;  198.250; 1664.000; 1335.000
933.614;  185.800; 1759.000; 1196.000
933.852;   71.575; 1357.000; 1171.000
934.090;  142.275; 1722.000; 1747.000
934.328;  112.675; 1252.000; 1457.000
934.566;  110.600; 1431.000; 1110.000
934.804;  149.300; 1263.000; 1309.000
935.042;  489.225; 1861.000; 1850.000
935.280; 1850.375; 2088.000; 2063.000
935.518; 2206.325; 2113.000; 2007.000
935.756;  473.400; 2481.000; 2316.000
935.994;  202.875; 1808.000; 1751.000
936.231;  395.050; 2890.000; 2950.000
936.469;  209.000; 2367.000; 2378.000
936.707;  181.375; 2220.000; 2167.000
936.945;  236.325; 2825.000; 2882.000
937.182;  209.850; 2679.000; 2741.000
937.420;  316.150; 3602.000; 3031.000
937.657;  445.325; 3365.000; 3478.000
937.895;  405.800; 3331.000; 3488.000
938.133;  324.725; 3540.000; 3528.000
938.370;  345.800; 3896.000; 4191.000
938.607;  401.700; 4488.000; 4205.000
938.845;  553.225; 5587.000; 5549.000
939.082;  471.000; 5387.000; 5177.000
939.320;  541.125; 5799.000; 5728.000
939.557;  646.350; 6549.000; 6491.000
939.794;  742.875; 7285.000; 7097.000
940.031;  908.550; 8421.000; 8368.000
940.269; 1176.700; 9552.000; 9107.000
940.506; 1133.200;10901.000;10507.000

