
Integration time [ms]: 100.000
Averaging Nr. [scans]: 40
Smoothing Nr. [pixels]: 0
Data measured with spectrometer [name]: 2101013U2
Wave   ;Sample   ;Dark     ;Reference
[nm]   ;[counts] ;[counts] ;[counts] 

394.013;   73.527; -450.257; -315.536
394.305;  282.700; -461.258; -419.536
394.596; 1111.670; -676.269; -527.514
394.887; 2618.212; -796.268; -654.518
395.178; 1001.518;  145.736;   11.476
395.470;   95.654; -210.263; -356.526
395.761;  249.627;  305.734;  394.479
396.052;  445.867; -545.284; -306.489
396.343;  419.864; -557.276; -454.503
396.634;  173.107; -200.279; -290.497
396.926;  162.034; -618.268; -565.517
397.217;  132.443;   11.725;  -17.504
397.508;   67.484; -366.273; -154.507
397.799;   74.482; -555.279; -571.497
398.090;   22.176; -973.280; -902.495
398.381;  141.666;   11.708;  -11.473
398.672;   23.667; -585.292; -742.473
398.963;   57.763; -348.279; -373.498
399.254;  124.526;   54.709; -209.475
399.545;   -2.726;-1017.266; -883.520
399.836;   87.852; -407.277; -343.501
400.127;   68.592; -205.295; -209.468
400.418;   75.004; -423.274; -392.506
400.709;   95.463; -359.281; -333.493
401.000;   91.930; -268.291; -309.476
401.290;  118.402;  225.698;  115.545
401.581;   76.775; -166.286; -228.485
401.872;   41.238; -542.298; -486.462
402.163;   68.959; -313.296; -252.467
402.454;  112.302; -123.291; -163.475
402.744;  114.775; -844.297; -813.465
403.035;  537.707; -226.293;  -86.471
403.326;  701.120; -366.292; -384.474
403.617;  439.382;  204.701;  165.539
403.907;  264.898; -593.283; -679.490
404.198; 2331.780; -545.307; -599.446
404.489; 6195.053; -618.283; -588.491
404.779; 2125.981; -618.302; -660.456
405.070;  243.534;  -67.304; -174.451
405.360;  351.934; -259.293; -238.472
405.651;  361.267;  125.699;   98.542
405.942;  211.995;  209.714;  127.516
406.232;  354.985; -432.285; -413.487
406.523;  576.102;  641.706;  758.530
406.813;  137.897; -579.286; -644.484
407.104;  442.765;  261.708;  144.527
407.394;  246.334; -604.299; -591.462
407.685;  167.184;  336.715;  222.513
407.975;   92.927; -400.283; -382.490
408.265;  125.817; -134.289; -190.478
408.556;   89.599; -472.291; -459.475
408.846;  183.528;  474.706;  429.530
409.137;   89.550;   -1.288; -216.480
409.427;   67.459; -193.285; -271.487
409.717;   39.638; -776.273; -692.508
410.007;  155.453;    4.715; -170.486
410.298;  109.819; -360.295; -342.469
410.588;   74.982; -495.285; -510.486
410.878;   49.862; -792.287; -873.482
411.168;  134.566; -481.298; -478.463
411.459;  122.896; -295.283; -242.489
411.749;   86.497; -609.292; -507.474
412.039;   80.149; -755.289; -386.480
412.329;  224.445;   40.722;  132.501
412.619;  221.773;  -62.286; -148.485
412.909;  401.220;  639.711;  594.521
413.199;  403.651; -130.280; -251.495
413.490;  432.685;  521.710;  352.523
413.780;  170.730;-1013.279; -913.496
414.070;  357.340;  -46.276;  235.497
414.360;  392.841; -729.278; -666.498
414.650;  458.858; -726.288; -688.482
414.940;  542.430; -538.280; -441.496
415.230;  926.404;   50.712;   74.519
415.520; 6026.469;  155.730;   66.486
415.809;23753.662; -305.281; -125.493
416.099;18043.905; -388.277; -229.501
416.389; 4954.551;  435.726;  236.494
416.679; 2901.508;   91.738;   85.473
416.969;  535.716; -527.287; -503.483
417.259;  452.282;  341.721;  171.503
417.549;  700.286;  522.718;  318.508
417.838; 1593.961; -205.268; -147.518
418.128; 5289.965;  650.710;  492.522
418.418; 4361.069; -491.272; -579.509
418.708; 3010.227;    9.726;  -48.506
418.997;11276.322; -474.275; -480.505
419.287;11509.209; -733.273; -790.507
419.577;10701.146; -160.283; -123.489
419.866;36106.403; -588.277; -498.501
420.156;37236.115; -242.270;  -55.513
420.446; 6637.975; -112.263;  -26.526
420.735;  961.534; -376.271; -446.512
421.025;  839.440; 1830.722;  315.502
421.314;  802.107; -203.271; -226.512
421.604; 1789.329;   89.732;  233.484
421.893; 1022.578; -705.271; -602.511
422.183;  251.826; -487.263; -461.526
422.472;  405.030;  -36.271; -107.511
422.762;  491.880; -416.266; -379.521
423.051;  280.015; -916.276; -916.503
423.341;  353.835; -491.273; -439.507
423.630;  450.811; -121.265;   15.477
423.919;  409.772;   58.725;   49.495
424.209;  382.431;  -31.263;   56.473
424.498;  513.809;   68.732;  161.483
424.787; 1076.815; -535.267; -601.518
425.077; 3378.234;   34.735;   29.478
425.366; 4974.137; -734.262; -744.528
425.655; 9555.486;  639.727;  259.493
425.945;19868.443; -313.247; -268.554
426.234;10857.360;  117.741;  300.467
426.523; 5021.215;  -86.259; -350.534
426.812; 6745.100;  107.734;  159.480
427.101; 9970.375; -127.269; -323.515
427.390;12584.619;  -55.270;  -86.514
427.680; 3130.110; -624.257; -411.538
427.969;  533.022; -330.255; -301.540
428.258;  343.377; -385.257; -477.536
428.547;  576.748;  449.728;  397.490
428.836; 1465.113; -421.253; -398.543
429.125; 2087.717; -199.259;  -72.534
429.414;  896.461; -330.251; -294.548
429.703; 3051.111; -231.251; -213.548
429.992; 9141.890; -938.250; -828.549
430.281; 5830.418; -397.264; -331.524
430.570;  638.701;  -21.252;   32.454
430.859;  692.940;  279.741;  352.466
431.148;  478.514;  636.752;  631.446
431.437;  331.101;  391.748;  367.454
431.725;  175.178; -544.257; -481.536
432.014;  151.795; -845.253; -756.545
432.303;  432.116; -149.239; -105.569
432.592;  700.825; -460.263; -178.525
432.881; 1073.090; -601.248; -437.554
433.169; 5957.172; -343.255;  -61.540
433.458;12075.751;  445.765;  540.424
433.747; 5091.793; -397.261; -289.529
434.036;  990.117; -275.242; -280.564
434.324; 2089.477; -395.249; -379.551
434.613; 3585.485;   40.757;  159.437
434.902; 1225.306;  333.760;  439.433
435.190;  737.040;   75.761;  295.431
435.479;  431.892;  -52.245;   83.441
435.767;  156.650; -411.244; -427.561
436.056;  279.037; -340.242; -294.563
436.345;  396.909; -372.240; -223.568
436.633;  404.222;   60.750;  383.450
436.922;  325.161;  208.760;  414.432
437.210;  809.290; -194.236;    1.426
437.499; 2601.849; -583.235; -432.576
437.787; 2811.015; -339.236;  -10.574
438.075;  675.546;   56.761;  162.430
438.364;  933.073;  -44.238;  250.429
438.652;  562.780; -286.226; -138.592
438.941;  178.118;    3.770;  269.415
439.229;   42.398; -665.252; -466.545
439.517;   44.332; -160.234;  -85.577
439.806;   12.621; -501.225; -290.595
440.094;  208.815;  377.766;  650.421
440.382;  248.394; -653.233; -302.580
440.670;  269.973; -361.235; -285.576
440.959;   44.339; -347.223; -170.599
441.247;   88.205; -151.229; -109.587
441.535;  137.081; -266.235;   31.423
441.823;   60.312; -497.234; -305.578
442.111;  207.234;  173.771;  327.412
442.400;  651.266; -628.245; -335.559
442.688; 1821.190; -111.234; -620.579
442.976; 1345.803; -786.213; -450.617
443.264;  136.803; -324.224; -364.597
443.552;  131.756; -258.226;   51.408
443.840;  187.704;  602.765;  876.423
444.128;  123.718;  265.767;  269.420
444.416;   12.787; -694.228; -312.588
444.704;   37.269; -465.219;  -92.605
444.992;  104.309;   -0.226;  240.407
445.280;   81.819; -517.230;  -94.585
445.568;   74.507; -694.212; -396.618
445.856;  427.178; -174.221;  357.398
446.143; 1000.290;  -54.220;   -7.604
446.431;  797.491;  -25.228;  625.411
446.719;  285.613;  489.783;  675.391
447.007;  196.763;  481.769;  705.416
447.295;  195.636;  597.777;  871.402
447.583;  112.253; -464.229;  -34.587
447.870;  200.874; -434.221; -202.601
448.158;  494.393; -104.230;  129.415
448.446;  401.616; -800.219; -338.604
448.733;  195.054;   13.776;  269.403
449.021;  297.031;   60.788;  341.382
449.309;  192.571; -296.210;  208.379
449.596;  227.160;  128.783;   59.392
449.884;  174.493; -571.222; -325.600
450.172;  152.921; -756.227; -406.590
450.459;  437.211;  645.786;  780.387
450.747; 2222.558; -411.218; -147.608
451.034; 7138.817;  493.772;  889.411
451.322; 5759.964; -413.214; -170.614
451.609;  510.631;  292.777;  508.403
451.897;  562.011; -550.203; -183.634
452.184; 1754.961; -622.223; -400.598
452.472; 1629.618;   97.792;  269.375
452.759;  357.342;  512.781;  864.395
453.047;  135.654; -407.212; -125.617
453.334;  100.450; -732.219; -216.606
453.621;  111.241; -438.214; -161.615
453.909;  134.052;   13.796;  384.368
454.196;  127.499; -299.199; -123.641
454.483;  236.199;  317.798;  540.364
454.771;  147.621; -215.208;  196.374
455.058;   59.225; -316.207;  102.374
455.345;  103.655;   71.807;  344.347
455.632;  104.253; -128.207;  235.373
455.919;   48.246;  -82.196;  182.354
456.207;  -50.997; -774.198; -450.642
456.494;    7.661; -475.200;  -66.639
456.781;   33.144; -399.202; -198.635
457.068;   56.785; -253.206;  -29.628
457.355;    4.986; -698.206; -401.629
457.642;    3.816; -552.205; -290.630
457.929;   20.271; -778.194; -417.651
458.216;   63.229; -575.212; -354.617
458.503;  223.125; -173.193;  -19.652
458.790;  220.844; -864.208; -630.625
459.077;  276.849;  -77.202;  110.364
459.364;  791.263; -350.195; -210.649
459.651; 1607.908;  -46.206;  220.372
459.938;  756.034; -864.209; -665.623
460.225;  187.153;  132.799;  276.363
460.512;  -41.031; -836.197; -688.645
460.799;  131.382;  -32.218;  320.392
461.086;   95.016; -370.200; -251.640
461.372;   72.854; -509.198; -279.642
461.659;  145.623; -165.196;  108.354
461.946;   86.274; -445.193;  -54.651
462.233;  248.638;  842.800;  888.361
462.519;  362.535; -814.201; -464.639
462.806; 1017.544; -768.197; -497.645
463.093;  866.970; -445.191;  -66.656
463.380;  -16.863; -920.186; -824.664
463.666;   70.646; -259.197;  -18.646
463.953;  102.958; -406.195; -243.648
464.239;  194.958; -173.195;  -77.648
464.526;  412.919;  413.806;  743.350
464.813;  374.982; -565.190; -304.658
465.099;  389.475;  606.807;  607.348
465.386;  371.279;  903.807;  921.348
465.672;   71.844; -694.197; -522.645
465.959;   32.600; -598.188; -520.662
466.245;   44.629; -468.193; -359.652
466.532;  127.031; -109.195;   63.352
466.818;   95.862; -357.186; -216.664
467.104;   11.428; -488.182; -415.672
467.391;  -21.691; -628.189; -459.658
467.677;   58.815; -289.186;    9.335
467.964;   20.865; -682.189; -471.660
468.250;  102.518; -331.186; -160.665
468.536;   90.860;   90.811;  180.341
468.822;  -26.370; -821.184; -574.668
469.109;  145.810;  351.827;  471.311
469.395;  213.414;  729.808;  787.346
469.681;  216.588;   46.811;  156.341
469.967; 1220.943; -699.188; -382.660
470.254; 2615.351; -494.188; -306.662
470.540; 1636.471; -601.196; -476.646
470.826;  239.789; -488.181; -397.675
471.112;  292.759;  288.816;  113.331
471.398;  104.363; -253.183;  -58.670
471.684;   55.293; -626.177; -447.680
471.970;    1.218; -918.180; -981.675
472.256;   39.438; -521.192; -441.654
472.542;   37.021; -499.171; -434.691
472.828;   41.723; -743.182; -607.672
473.114;   36.265; -380.166; -283.700
473.400;   20.359; -504.175; -293.684
473.686;   59.746; -452.166; -400.701
473.972;   73.124; -230.174; -131.687
474.258;  -26.290; -925.173; -843.689
474.544;  180.809; -183.178;   -2.679
474.830;  293.911;  -65.175;   45.316
475.116;  427.758; -123.190; -196.658
475.401;  612.420; -558.180; -467.676
475.687;  201.244; -725.180; -718.676
475.973;   19.282; -673.181; -770.673
476.259;  274.438;  736.825;  764.315
476.544;  359.226; -539.176; -437.682
476.830;  765.942; -398.172; -322.690
477.116;  622.949; -430.177; -336.682
477.401;  130.595;  346.820;  358.324
477.687;  -11.290; -289.175; -405.684
477.973;   38.485;   21.819;   28.326
478.258;   -5.333; -448.163; -348.706
478.544;   55.623;   21.815;   61.334
478.829;  -45.199; -818.171; -738.692
479.115;  -26.634; -749.172; -651.690
479.401;    2.595; -444.174; -449.686
479.686;   44.693; -253.180;  -74.676
479.972;  -20.211; -886.178; -776.680
480.257;   47.917; -258.166;  -65.700
480.542;    5.405; -614.170; -469.693
480.828;  234.833; 1288.824; 1392.317
481.113;  -20.669; -464.176; -426.683
481.399;    5.091; -236.161; -202.711
481.684;  -53.009; -620.166; -462.700
481.969;   16.330; -158.159;  -73.713
482.255;   -1.709; -439.169; -285.695
482.540;    7.165; -569.178; -441.680
482.825;   11.632; -395.187; -404.663
483.110;  103.095;  -85.169; -105.696
483.396;  174.377; -840.157; -652.718
483.681;  444.074;  543.826;  730.313
483.966;  131.174; -696.160; -700.712
484.251;   14.498; -404.174; -310.687
484.536;   17.102; -356.165; -378.703
484.822;   18.076; -205.173; -218.687
485.107;  -32.934; -599.152; -502.726
485.392;  135.733;  662.836;  541.296
485.677;   61.380;  354.832;  163.302
485.962;   99.150;  160.843;  270.283
486.247;   85.575;  -14.162;   -8.707
486.532;   52.693; -178.166; -325.701
486.817;  156.786;  381.839;  431.291
487.102;  138.524; -453.154; -514.722
487.387;  618.754; -637.156; -652.718
487.672; 1053.663; -154.164;  -38.705
487.957;  653.893; -394.160; -286.711
488.241;  209.133; -290.150; -314.729
488.526;  675.267; -280.152; -148.726
488.811; 1098.117; -881.177; -818.680
489.096;  791.776; -666.154; -702.723
489.381;  476.864;    3.847;  162.275
489.666;  340.091; -428.161; -510.710
489.950;  173.279;  558.846;  627.277
490.235;  -22.197; -480.151; -458.728
490.520;  -20.485; -756.161; -723.710
490.804;  -51.044; -827.156; -736.719
491.089;   15.274; -469.149; -299.732
491.374;   43.862; -132.164;  -75.704
491.658;    2.736; -817.147; -717.735
491.943;  197.197; -657.152; -609.727
492.227;  283.719; -178.155;  -38.721
492.512;   65.024; -294.157; -341.717
492.797;  -64.157; -713.149; -716.731
493.081;  -53.737; -588.147; -598.735
493.366;  -24.833; -751.161; -635.711
493.650;  184.417;  831.859;  917.254
493.935;   44.410; -648.147; -447.734
494.219;  -35.896; -778.142; -687.743
494.503;  -39.237; -585.150; -487.730
494.788;   52.391;   46.842;   74.285
495.072;  105.159;  184.850;  434.271
495.356;  164.402; -463.148; -343.733
495.641;  479.470; -812.146; -736.736
495.925;  461.536; -976.156; -903.719
496.209;   45.398; -599.149; -451.732
496.494;  -32.495; -763.142; -544.744
496.778;    9.824; -364.154; -360.722
497.062;  -53.439; -819.156; -627.719
497.346;  -29.405; -869.160; -640.711
497.631;  127.256;  580.852;  560.266
497.915;   80.681;  -64.145;  175.261
498.199;   71.552; -341.157; -277.718
498.483;   61.791; -562.152; -508.725
498.767;  190.885;  301.850;  300.271
499.051;  179.271; -126.149; -100.732
499.335;   45.844; -693.149; -739.731
499.619;  -33.405; -381.129; -423.767
499.903;   44.668; -272.155;  -65.721
500.187;   43.756; -588.153; -316.724
500.471;   33.221; -796.152; -595.727
500.755;  117.615;   62.839;  -96.710
501.039;   30.994; -270.155; -357.721
501.323;  106.194;  -21.141;  264.254
501.607;   45.818; -447.163; -503.706
501.891;   12.054; -607.156; -512.718
502.174;  -17.308; -726.144; -585.741
502.458;   80.575;   89.849;  370.273
502.742;   48.718; -180.138; -191.751
503.026;   99.134; -412.147; -254.734
503.310;  152.504; -437.159; -375.713
503.593;  134.111; -464.147; -325.735
503.877;  136.284; -232.133; -156.760
504.161;  204.733;    2.847;  -50.724
504.444;  130.018; -841.158; -710.716
504.728;  426.636; -487.164; -522.704
505.012;  651.057; -257.150;  -76.729
505.295;  510.092; -417.161; -212.711
505.579;  506.535; -256.156; -496.719
505.862;  700.852; -555.145; -333.738
506.146;  651.731; -681.159; -758.714
506.429;  365.307;  568.841;  461.286
506.713;   58.679; -732.151; -667.728
506.996;  310.848;   90.846;  295.278
507.280;  321.531; -633.165; -474.703
507.563;  236.017; -469.155; -261.721
507.847;   89.207; -423.153; -112.724
508.130;   93.217; -665.161; -456.711
508.413;  104.437; -758.167; -577.700
508.697;  250.637; -151.167;   12.300
508.980;  137.133; -422.153; -312.724
509.263;    2.363; -466.155; -450.720
509.547;   39.807; -124.150;   82.271
509.830;   41.819; -172.160;  140.289
510.113;   73.585;  128.844;  298.281
510.396;   50.839; -530.152; -300.725
510.680;  229.303; -818.145; -812.738
510.963;  831.128;  184.846;  180.277
511.246;  736.315; -493.150; -357.730
511.529;  272.983; -482.145;  -83.739
511.812;  337.981; -250.134;   10.241
512.095;  236.376; -740.151; -396.728
512.378;   63.365; -317.147; -245.736
512.661;   26.201; -703.137; -623.753
512.944;   19.856; -750.142; -637.744
513.227;   74.773; -170.137; -171.752
513.510;   41.242; -479.144; -671.741
513.793;   45.798; -485.140; -435.747
514.076;  142.366;  -43.127;  -39.771
514.359;  112.299; -294.149; -135.732
514.642;   68.109; -442.142; -567.744
514.925;  685.072;  581.860;  561.253
515.208;  907.602; -498.134; -443.758
515.491;  589.366; -276.133; -182.761
515.773;  338.946; -410.143; -337.742
516.056; 1882.608;  249.864;  409.246
516.339; 2631.812; -754.136; -652.755
516.622; 2033.037; -518.150; -488.730
516.904; 1516.928;  882.857;  975.257
517.187;  722.622; -730.138; -523.752
517.470;  414.627; -568.143; -510.743
517.752;  412.989; -624.136; -470.756
518.035;  305.384; -708.139; -725.749
518.318;  321.187; -799.136; -744.755
518.600; 2155.170; -300.132; -325.762
518.883; 2979.709;  310.858;   88.256
519.165; 1449.915; -585.138; -426.751
519.448;  402.319;  -61.132;  -19.762
519.730;  224.024; -573.126; -415.773
520.013;  346.962;  588.867;  664.240
520.295; 1057.658;  -94.134;  -15.759
520.578; 2360.258; -335.131; -305.764
520.860; 2629.945; -254.132;   56.238
521.143; 1331.392; -763.135; -584.756
521.425;  498.962; -251.125; -279.775
521.707;  655.167; -622.127; -380.771
521.990; 1633.267; -199.127;  167.229
522.272; 1860.050; -116.140;   -4.748
522.554;  894.947; -237.143; -157.742
522.836;  437.180;  -24.134;   99.241
523.119;  251.008; -496.148; -189.734
523.401;  173.790; -448.130; -314.766
523.683;   69.352; -865.137; -693.753
523.965;  255.845;  408.862;  260.248
524.247;  246.484;   54.878;  170.220
524.529;  177.782; -451.134; -367.759
524.812;  329.692;   -3.130;  191.234
525.094;  782.944; -773.138; -631.751
525.376; 1238.096; -143.124;   78.223
525.658;  747.459; -441.136; -339.754
525.940;   24.904; -805.131; -671.764
526.222;   58.062; -188.136;  -88.755
526.504;  149.127; -190.131;   32.237
526.786;  257.810; -960.133; -647.760
527.068;  383.527; -124.123;  -67.778
527.349;  181.255; -865.137; -774.754
527.631;  148.069; -137.132;   22.238
527.913;  113.666; -664.127; -450.771
528.195;  157.930; -761.125; -639.774
528.477;  226.552;  -93.134;  -30.758
528.759;  130.766; -648.130; -522.766
529.040;   64.101; -569.123; -293.778
529.322;   49.008; -235.125;  -10.774
529.604;  172.344;  -47.130;   93.233
529.886;  163.024; -546.126; -302.773
530.167;  148.760;  232.870;  192.235
530.449;   35.865;    1.853;   63.265
530.731;   32.083; -572.122; -459.779
531.012;   56.604; -513.120; -216.784
531.294;   61.894; -118.116;  -43.792
531.575;  124.962;  290.875;  538.225
531.857;   33.047; -548.135; -266.757
532.138;   96.243; -113.141;   40.254
532.420;  201.043;  294.865;  403.244
532.701;  269.187; -722.133; -751.760
532.983;  407.265;  232.867;  182.239
533.264;  134.172; -243.126;  175.228
533.546;  -21.713; -491.136; -508.755
533.827;   53.459;  173.867;   -1.759
534.109;   72.597; -352.135;  -80.757
534.390;  135.398; -725.132; -582.762
534.671;  248.268; -270.135;  -82.756
534.953;  140.178; -751.123; -611.779
535.234;   23.878; -426.117; -255.789
535.515;  -66.788; -891.119; -735.785
535.796;  -15.238; -431.128; -193.770
536.078; -101.904;-1050.124; -904.777
536.359;   10.679;  -22.123;    3.221
536.640;  -18.993; -480.125; -197.774
536.921;  161.549;  225.871;  143.232
537.202;  356.266;  -87.138;  -16.751
537.483;  417.607;  251.869;  377.236
537.764;  149.485;   17.870;   98.235
538.045;  -40.299; -543.134; -371.758
538.326;  -31.274; -596.129; -447.768
538.607;   10.768; -686.127; -476.771
538.888;  164.145;   98.879;    5.218
539.169;  179.439; -704.122; -535.781
539.450;  323.548;  236.871;   16.233
539.731;  228.874; -361.121; -182.783
540.012;  135.479;  199.880;  412.216
540.293;  110.865;   82.876;  158.224
540.574;   24.415; -895.113; -717.796
540.855;  469.472;  435.879;  377.218
541.136;  522.487;   47.878;  139.220
541.416;  265.017; -161.130; -220.766
541.697;  169.828; -274.131; -170.763
541.978;  948.695; -270.135; -315.757
542.259; 1212.892; -211.127; -236.771
542.539;  567.237; -191.116; -186.790
542.820;  196.562;  461.875;  480.225
543.101;  140.830;  -52.145;  -77.738
543.381;   61.142; -638.127; -591.771
543.662;  278.290;  159.873; -254.771
543.942;  556.813; -751.127; -830.770
544.223;  989.538;  193.878;  161.219
544.504;  624.146; -275.124; -182.777
544.784;  525.249; -592.126; -408.773
545.065; 1542.741;  104.884; -254.791
545.345; 1826.212;  227.881;   14.215
545.626; 1163.689;  -14.113; -108.796
545.906;  822.935;   77.869;   98.235
546.186;  313.403;   92.874;  -95.773
546.467;  185.898;   99.877;  -95.778
546.747;  299.437;  264.884;  327.210
547.027;  326.169;   91.876;  111.223
547.308;  298.512; -376.127; -530.770
547.588;  367.677;  299.871;  371.232
547.868;  186.436;  458.870;  588.235
548.149;  186.374;  609.885;  593.207
548.429;  116.916; -347.127; -299.771
548.709;  159.179; -645.120; -461.784
548.989;  419.022;   84.882;   88.213
549.269; 1880.393;   10.868;  139.239
549.550; 4384.853;  215.877;  117.222
549.830; 3892.532; -758.111; -556.799
550.110;  764.590; -468.110; -320.801
550.390;  756.283; -128.122;  -56.779
550.670; 1058.060; -868.114; -783.795
550.950;  739.222; -509.121; -471.782
551.230;  176.418;  549.879;  460.218
551.510;   -6.529; -381.121; -326.782
551.790;   15.148; -173.109; -127.803
552.070;  228.648;  940.877; 1181.223
552.350;  347.541; -492.119; -377.786
552.630;  519.891;   -2.121;   77.219
552.909;  315.192;  181.884;   73.209
553.189;  204.900;  -49.132;   33.237
553.469;  144.741; -703.119; -514.786
553.749;  182.794; -469.127; -357.772
554.029;  157.133;   33.883;  -24.790
554.308;  128.053; -154.115;  -37.794
554.588;   55.036; -196.128; -204.770
554.868;   58.948; -366.121;  -47.782
555.147;  140.200; -114.115;  -46.793
555.427;  508.719; -260.116; -250.792
555.707; 3476.973; -284.115; -200.793
555.986; 4257.285; -719.111; -538.800
556.266; 2187.761;   23.884;   72.210
556.546;   97.371; -888.121; -675.782
556.825;  218.132; -657.114; -556.794
557.105; 1589.659; -125.128;   17.230
557.384; 1890.240;  122.884;  187.209
557.664;  701.918; -717.116; -508.792
557.943;   90.297; -557.121; -411.782
558.222;  154.025; -345.118; -344.788
558.502;  247.126; -116.115;  -76.793
558.781;  449.897;  194.885;  499.208
559.061;  351.225; -232.118; -227.788
559.340;  254.005;  302.883;  353.211
559.619;  616.586;   93.884;  148.210
559.899;  879.332; -239.117; -266.789
560.178;  826.076; -778.115; -593.793
560.457; 2814.659; -623.117; -562.790
560.736; 3968.512; -472.111; -482.800
561.015; 2623.681; -500.128; -502.769
561.295;  359.243;  180.893;  215.193
561.574;  335.373;  119.885;  116.207
561.853;  473.802;  274.891;  303.197
562.132;  452.904;  -45.114;  182.206
562.411;  381.916;  396.879;  553.219
562.690;  125.847; -592.115; -458.792
562.969;  138.571;  472.888;  630.203
563.248;  445.039; 2966.878; 2487.219
563.527;  238.786; -290.111; -408.800
563.806;  343.991; -650.127; -521.771
564.085;  381.383; -297.105; -206.810
564.364;  193.085; -594.117; -405.790
564.643;  431.217; -276.121; -223.781
564.922; 1683.996;  221.890;  397.198
565.201; 1695.874; -640.109; -700.803
565.479;  706.495; -297.115; -219.792
565.758;  302.159; -810.128; -712.770
566.037;  424.801; -155.109; -100.803
566.316;  216.116; -286.116;  -28.791
566.595;   34.073;  -17.115;  -12.793
566.873;   73.988; -166.111;  -79.801
567.152;  -51.554; -490.113; -590.797
567.431;   11.012; -113.116;    6.210
567.709;   14.268; -344.107; -212.807
567.988;  223.032; -810.114; -769.794
568.266;  477.973; -160.115;  -68.793
568.545;  347.856; -644.100; -514.819
568.824;  503.845;  160.885;  356.208
569.102;  487.632; -351.114; -235.794
569.381;  193.919; -492.116; -407.792
569.659;  -50.058; -553.113; -553.796
569.938;   32.187; -743.122; -465.780
570.216;   93.328; -225.109; -225.804
570.494;  -15.190; -632.114; -572.795
570.773;   38.496;  202.879;  114.218
571.051;    5.276; -373.123; -357.778
571.330;   43.914; -221.113; -174.796
571.608;   18.874; -181.098; -173.823
571.886;  -68.170; -671.111; -581.799
572.164;  -61.877; -739.121; -621.782
572.443;  -39.963; -562.105; -512.811
572.721;  -24.116; -399.117; -289.790
572.999;  -24.498; -280.117; -168.788
573.277;   71.330;  379.894;  620.191
573.555;  239.707;   94.894;   37.190
573.834; 1195.177;  -86.117; -114.788
574.112; 1360.645;  880.893;  811.193
574.390;  407.137; -143.111;  -96.801
574.668;    6.522;  -91.112;  -61.797
574.946;  -10.942; -165.106; -187.810
575.224;   12.124;   71.891;  -16.803
575.502;  -12.311; -200.116; -204.791
575.780;  -69.227; -767.112; -829.798
576.058;  218.661; 1589.889; 1004.200
576.336;  -17.033; -210.110; -129.801
576.614;  -45.502; -511.112; -340.798
576.891;   28.928; -711.115; -823.794
577.169;  433.786; -158.108; -285.805
577.447;  491.795;  169.893;  202.193
577.725;  245.403;  629.888;  854.201
578.003;   11.201;  -71.112; -371.798
578.280;   88.471; -208.104; -242.812
578.558;   69.051; -450.115; -422.793
578.836;  124.210; -210.114; -145.795
579.114;   58.496; -630.112; -670.797
579.391;   87.929;   -6.117;  -18.789
579.669;  -52.747; -595.114; -704.794
579.947;  137.392; -326.107; -127.806
580.224;  290.116; -692.107; -524.806
580.502;  284.146;  127.893;   76.193
580.779;   22.160;  -42.117;   75.210
581.057;  -69.946; -584.109; -470.804
581.334;  -91.689; -726.102; -695.815
581.612;   41.434;   54.895;  511.190
581.889;  -21.675;  -83.101; -129.818
582.167;  -42.311; -298.099; -190.821
582.444;  -99.431; -845.102; -814.817
582.721;   92.145;  657.899;  715.183
582.999;   35.561; -326.100; -167.821
583.276;  456.280; -812.123; -713.779
583.553;  630.839; -364.102; -294.816
583.831;  197.243; -607.104; -631.812
584.108;   48.334;  349.892;  174.195
584.385;    9.811; -122.102;  -98.815
584.662;  -66.061; -651.111; -828.801
584.940;   30.663;  204.889;  204.199
585.217;  -22.009;  -73.113; -303.796
585.494;   29.947;   71.890;  118.198
585.771;  173.929; -250.109; -354.804
586.048;  474.116; -196.113;  -76.796
586.325;  288.116; -721.110; -773.801
586.602;   91.721;  230.896;  213.188
586.879;  -14.242; -499.100; -580.820
587.156;   41.584; -156.105; -331.810
587.433;  -37.883; -701.102; -667.817
587.710;   50.749;  152.888;  234.202
587.987;  260.715; -264.105; -236.811
588.264;  761.775;  315.888;  387.202
588.541; 1247.224;  -61.104;   26.187
588.818; 2539.782;   72.892;  171.196
589.095; 2162.494; -163.104; -174.812
589.371;  348.052; -459.109; -414.804
589.648;    7.395; -581.107; -437.807
589.925;   16.786; -517.114; -621.795
590.202;   14.273; -741.112; -607.798
590.478;   72.616; -166.105;  -73.811
590.755;  216.538; -241.108; -132.806
591.032; 2207.493; -741.110; -699.802
591.308; 3066.190; -732.094; -790.831
591.585; 1556.543; -573.110; -560.802
591.862;   96.444;-1056.102; -950.817
592.138;   44.835; -475.108; -474.805
592.415;  119.397; -486.104; -495.813
592.691; 1369.845;  460.896;  518.188
592.968; 1749.851; -208.098; -123.824
593.244;  818.012; -695.116; -595.790
593.521;   66.269; -105.102;  -42.817
593.797;  -29.416; -810.122; -720.780
594.074;  290.914; -611.096; -588.826
594.350;  609.775;  828.905;  729.172
594.626;  270.414; -303.111; -283.801
594.903;   97.069; -643.101; -645.817
595.179;  188.126;  243.896;  418.187
595.455;    9.297; -136.107; -150.807
595.731;    5.778;  -19.103;  -38.814
596.008;  -30.042; -464.111; -434.800
596.284;   19.910; -187.100; -242.820
596.560;   50.196; -501.093; -493.833
596.836;  170.761; -173.105;  -70.810
597.112;  318.411; -582.108; -437.805
597.388;  240.812;  -49.097;  -48.826
597.665;  115.244;  437.887;  530.203
597.941;  -81.074; -572.089; -658.839
598.217;   14.021; -323.110; -293.802
598.493;  235.431;   61.891; -204.804
598.769;  467.304; -175.100;  -50.819
599.045;  270.414; -490.108; -562.806
599.321;   43.559; -193.100; -261.820
599.597;  122.530; -355.109; -476.804
599.872;  436.849;  409.896;  429.187
600.148;  345.063;  -61.097; -172.826
600.424;  250.869;   91.893;  202.193
600.700;  202.421; -170.107; -280.807
600.976;  103.307; -442.097; -464.825
601.252;  218.352; -226.109; -272.803
601.527;  182.750; -833.104; -840.813
601.803;  122.692; -453.105; -404.812
602.079;  176.229; -124.100; -118.819
602.354;  494.081; -620.092; -531.835
602.630;  769.291; -140.113; -482.796
602.906; 2015.800; -910.101; -863.818
603.181; 6085.691; -627.119; -534.786
603.457; 5138.486;   98.903; -278.826
603.733;  745.900; -605.120; -626.783
604.008;  856.358; -245.106; -164.810
604.284; 2788.396; -636.101; -580.817
604.559; 2415.702;   -3.112;  -42.799
604.835;  434.111; -163.105; -225.810
605.110;  366.040; -732.099; -892.821
605.385;  629.499;  224.907;  267.167
605.661;  535.803; -625.095; -729.829
605.936; 1044.664; -664.108; -737.806
606.211;  859.559;  -17.103; -170.815
606.487;  182.481; -329.114; -376.794
606.762;    1.942; -791.119; -745.786
607.037;  -38.664; -501.105; -433.810
607.313;  -55.254; -589.096; -574.828
607.588;  -12.567; -375.106; -137.810
607.863;   49.249;  -28.101; -143.818
608.138;  167.045;  513.890;  516.198
608.413;   18.894; -576.099; -592.822
608.688;   39.636; -203.108; -267.805
608.964;  167.727; -509.106; -218.809
609.239;  202.984; -107.105; -212.810
609.514;  213.417;  281.895;  240.188
609.789;  586.471; -187.104; -716.812
610.064;  789.345; -435.096; -609.827
610.339;  751.852; -855.109; -799.804
610.614; 1042.735; -131.100; -315.820
610.889;  585.792;  215.895;  107.188
611.163;   29.643; -407.104; -591.812
611.438;   68.332;   81.886; -167.794
611.713;    4.646; -467.101; -499.817
611.988;   34.473; -144.101; -328.818
612.263;  -30.964; -771.102; -717.815
612.538;  188.166;  385.887;  251.204
612.812;  133.686; -832.100; -911.820
613.087;   97.749; -358.098; -338.823
613.362;  -61.504; -497.107; -557.807
613.637;   41.380;  261.897;  138.186
613.911;  -29.293; -256.092; -345.835
614.186;   93.645; -249.107; -292.807
614.460;  587.627; -842.081; -758.854
614.735;  686.850;  -55.087;  -17.843
615.010;  131.615;   43.912;  -82.841
615.284;  242.910;  360.892;  246.195
615.559;  314.381; -792.092; -955.835
615.833;  266.617;  -76.099;  -87.822
616.108;    8.218; -225.090; -390.837
616.382;  123.426;  274.913;  402.156
616.656;  138.218; -241.090; -232.837
616.931;  461.417; -785.099; -700.822
617.205;  963.725; -973.104; -979.813
617.480;  877.485;  -91.125;    6.225
617.754;  130.457; -396.125; -128.774
618.028;   -5.773; -369.129; -382.768
618.302;   53.734;   73.892;  -25.805
618.577;  -41.718; -371.103; -518.815
618.851;  -63.626; -399.109; -600.803
619.125;  -40.043; -335.134; -378.759
619.399;  -41.949; -244.104; -374.813
619.673;  -40.880; -330.115; -515.792
619.947;  -51.515; -333.114; -448.795
620.222;  -24.561; -198.110; -204.801
620.496;   -7.528;  -47.121;  -96.782
620.770;    0.839; -187.122;  -93.781
621.044;  195.409;  323.895;  346.190
621.318;  672.375; -653.120; -614.783
621.592;  593.248; -430.121; -409.783
621.866;  304.778; -476.112; -572.799
622.140;   12.763; -207.116; -356.791
622.413;   47.233;  138.889;  112.200
622.687;  -42.529; -746.101; -492.817
622.961;   11.884; -130.108; -143.805
623.235;  -70.192; -633.111; -661.800
623.509;  -96.634; -816.105; -848.811
623.783;    8.367;  -12.107;   48.193
624.056;  -11.374; -254.120; -280.783
624.330;   42.197;   63.888;   -3.797
624.604;   36.360; -271.116; -355.790
624.877;   63.194;  180.890;   26.198
625.151;   25.054; -249.114; -238.794
625.425;  -47.497; -150.103; -283.814
625.698;  -64.389; -367.119; -374.785
625.972; -104.779; -799.110; -765.802
626.245;   65.337;  685.884;  484.210
626.519;  -57.020; -426.120; -340.784
626.792;  -24.204; -192.107; -380.807
627.066;  -79.318; -485.122; -662.779
627.339;  -99.758; -736.110; -663.802
627.613;   20.529;  351.880;  148.216
627.886;   49.523;  187.891; -612.803
628.160;  -14.125;  312.880; -161.783
628.433;  -87.537; -695.125; -703.775
628.706;  -77.370; -517.120; -615.784
628.979;    8.569;  296.876;  117.223
629.253;  -92.584; -785.119; -833.786
629.526;  310.472; -334.126; -253.772
629.799;  283.077; -641.123; -479.778
630.072;  139.479; -497.128; -516.769
630.346;  -66.588;-1115.116;-1080.790
630.619;  371.147; -467.107; -545.808
630.892;  552.334;  709.889;  593.200
631.165;  311.726;  790.896;  679.187
631.438;  -98.425;-1092.112;-1055.798
631.711;   39.080;  453.877;  257.221
631.984;  -62.018; -523.117; -624.789
632.257;  -61.821; -636.117; -681.789
632.530;  -57.439; -412.119; -433.785
632.803;   11.002; -109.115;    7.207
633.076;  -71.552; -360.123; -422.777
633.349;   12.858;  173.872;  121.231
633.622;  -43.465; -187.119; -240.785
633.895; -119.974; -903.120; -823.783
634.167;  -82.201; -496.126; -525.773
634.440;  -19.432;  -19.116; -137.792
634.713;    0.090;  -22.119; -120.786
634.986;   75.948;  593.871;  453.233
635.258;  -81.425; -507.115; -597.793
635.531;   85.125;  742.882; -343.788
635.804;  -37.044; -303.117; -318.789
636.077;  -79.060; -830.116; -852.791
636.349;  -26.726; -586.115; -474.793
636.622;  334.121; 1695.874; 1392.228
636.894;  194.031; -474.120; -909.784
637.167;  126.690; -836.127; -789.771
637.439;   20.936; -278.128; -213.770
637.712;  -55.902; -312.126; -293.772
637.984;  -87.560; -635.116; -707.791
638.257;  347.924;  515.877;  488.222
638.529;  531.089; -881.125; -924.776
638.802;  224.179; -508.128; -449.769
639.074; -112.212; -927.122; -952.781
639.346; -117.301; -942.135; -930.757
639.619;   -4.492;  -79.142; -319.744
639.891;   -5.918;  -83.122; -168.779
640.163;  -76.466; -689.122; -756.780
640.435;   29.435;  273.878;  103.220
640.708;   -5.488;  -72.122; -132.780
640.980;  -31.986; -366.122; -362.781
641.252;  177.916;  -25.121;  -71.781
641.524; 1681.118;  580.879;  573.219
641.796; 1752.170;-1094.121; -907.782
642.068;  313.972; -191.121; -300.782
642.340;  -63.952; -486.121; -566.783
642.613;   32.000;  294.880;  323.217
642.885; -100.548; -787.120; -878.783
643.157;  -55.071; -810.120; -658.784
643.428;   56.256;  170.880;  218.216
643.700;  -64.417; -498.120; -425.784
643.972;  -53.815;  -16.119; -133.785
644.244;  -84.989; -474.119; -559.785
644.516;  -55.487; -250.119; -114.786
644.788;   57.815;  662.881;  548.214
645.060;  -11.558;  -12.119; -124.786
645.332;  -87.731; -525.118; -535.787
645.603;   27.146;  479.882;  342.213
645.875;  -77.927; -334.118; -369.787
646.147;  144.474; 1487.882; 1242.212
646.418;  -89.524; -931.117; -918.788
646.690;  106.528; -714.117; -715.789
646.962;   21.155; -413.117; -451.789
647.233;  -12.268;   15.883;   11.211
647.505;  -91.966; -595.117; -475.790
647.776;   16.361;  328.884;  229.210
648.048;   -9.963; -248.116; -418.790
648.320;  -75.061; -752.116; -679.791
648.591; -151.834;-1055.116; -958.791
648.862;  -95.107; -505.116; -577.792
649.134;    4.370;  115.885;  198.208
649.405;  -37.678; -661.115; -618.792
649.677;  -48.776; -475.115; -598.793
649.948;   -7.725; -181.115; -296.793
650.219;  -13.048;  -37.115; -147.793
650.491;  -79.596; -431.114; -520.794
650.762; -113.869; -705.114; -731.794
651.033;  -82.042; -437.114; -424.795
651.304;  -90.240; -743.114; -728.795
651.576;  -72.238; -680.114; -645.795
651.847;  -45.812; -250.113; -140.796
652.118;  -28.310;  -32.113; -189.796
652.389; -104.058; -639.113; -722.796
652.660;  -45.756; -147.113;  -89.797
652.931; -122.654; -897.112; -871.797
653.202;  -75.902; -382.112; -541.798
653.473;  -61.875; -633.112; -533.798
653.744;  134.751; -595.112; -590.798
654.015;  124.928; -356.112; -303.799
654.286;  -74.545; -642.111; -663.799
654.557;  -65.318; -586.111; -521.799
654.828; -151.141;-1114.111;-1088.800
655.099;  -83.439; -404.111; -291.800
655.370;  -83.087; -427.111; -543.801
655.641; -117.636; -656.110; -714.801
655.911; -101.934; -618.110; -638.801
656.182;   50.618;  437.890;  387.198
656.453;   89.995;  830.890;  746.198
656.724;  -62.103; -466.110; -426.802
656.994;  -86.926; -553.109; -568.803
657.265; -115.849; -862.109; -873.803
657.536;  -89.248; -500.109; -377.804
657.806; -106.471; -561.109; -593.804
658.077; -135.344; -866.109; -950.804
658.347;  -81.017; -523.108; -598.805
658.618; -108.815; -646.108; -694.805
658.888;   -6.288;  -41.108;  112.195
659.159;  -74.561; -432.108; -548.806
659.429;  -16.460; -292.108; -349.806
659.700;    8.992; -435.107; -390.807
659.970;   -4.256; -370.107; -359.807
660.241;    3.421; -754.107; -921.807
660.511;  464.998; -147.107; -174.808
660.781;   87.675; -793.106; -748.808
661.052;  -61.423; -222.106; -381.808
661.322;  -28.372;   21.894;   -9.809
661.592;   12.230;  257.894;  148.191
661.862;  -81.443; -369.106; -382.810
662.133;  -90.616; -551.105; -502.810
662.403; -109.514; -770.105; -676.810
662.673;  -71.387; -256.105; -213.811
662.943; -109.685; -612.105; -551.811
663.213;  -12.509;  -85.105;  -81.811
663.483;  -79.182; -593.104; -568.812
663.753;  -56.155; -194.104; -152.812
664.023;   -7.828;   68.896;  -32.813
664.293;  -60.676; -319.104; -126.813
664.563; -116.424; -694.104; -648.813
664.833; -128.547; -743.103; -608.814
665.103; -134.021; -730.103; -793.814
665.373; -114.544; -766.103; -806.814
665.643;  -93.742; -863.103; -918.815
665.913;   28.610; -534.103; -714.815
666.182;  122.362; -685.102; -719.816
666.452;  239.864;  -22.102;  -89.816
666.722;  -29.534; -724.102; -784.816
666.992; -122.183; -948.102; -921.817
667.261;  -98.481; -824.102; -808.817
667.531;  208.371;  134.899;   45.183
667.801;  540.673; -440.101; -412.818
668.070;  240.425;  714.899;  697.182
668.340;  -98.298; -883.101; -840.819
668.609;   85.178;  588.900;  301.181
668.879;  -69.670; -490.100; -558.819
669.149;  -66.018; -539.100; -516.820
669.418; -106.191; -698.100; -726.820
669.688;  -40.439; -482.100; -666.820
669.957;   69.638; -423.099; -546.821
670.226;  -35.760; -268.099; -331.821
670.496;  -94.559; -431.099; -635.822
670.765;  -84.532; -418.099; -501.822
671.034; -137.880; -872.099; -828.822
671.304;  -20.128;   55.902; -111.823
671.573; -157.826;-1085.098; -957.823
671.842;   63.026; -380.098; -294.823
672.112;   13.778; -692.098; -586.824
672.381;   -8.546; -239.098; -214.824
672.650; -143.019;-1005.097;-1021.825
672.919;  -96.392; -631.097; -507.825
673.188;  -87.115; -681.097; -878.825
673.457; -147.738;-1101.097;-1143.826
673.726;  -86.111; -579.096; -646.826
673.995;  -50.334; -533.096; -479.826
674.265;  -29.233; -263.096; -333.827
674.534;   15.019; -183.096; -235.827
674.802;   -8.254; -618.096; -703.828
675.071;  833.498; -886.095; -801.828
675.340; 3575.225; -464.095; -339.828
675.609; 1160.352;  103.905;   82.171
675.878;   57.454; -949.095; -893.829
676.147;   16.055;  -26.095;   -8.829
676.416;   65.682; -210.094; -294.830
676.685;  662.559; 1000.906; -622.830
676.953;   96.086; -603.094; -452.831
677.222;  -33.887; -193.094; -273.831
677.491;  -39.685;  -24.094; -127.831
677.759;   -5.408;   11.907;  172.168
678.028;  -24.582; -279.093; -222.832
678.297;   -6.580;   71.907;  197.168
678.565; -139.878; -898.093; -944.833
678.834;  -50.276; -311.093; -268.833
679.102;  -75.199; -411.092; -391.834
679.371; -122.472; -898.092; -727.834
679.639; -145.445; -797.092; -786.834
679.908; -131.269; -794.092; -724.835
680.176; -150.917; -895.091; -941.835
680.445;  -69.165; -346.091; -352.835
680.713;  -18.238;  -58.091;  -23.836
680.982;  -95.161; -523.091; -525.836
681.250; -111.559; -578.091; -507.837
681.518;  -97.832; -534.090; -751.837
681.787;  -30.506; -204.090; -167.837
682.055;  -64.554; -490.090; -422.838
682.323; -149.277; -993.090; -992.838
682.591;   19.125; -216.090; -538.838
682.859;   63.427;    9.911;  -35.839
683.128;   16.354;  232.911;  497.161
683.396; -155.394;-1102.089;-1122.840
683.664;  -45.518; -241.089;   21.160
683.932;   -2.291;  144.911;  -76.840
684.200;  -84.564; -576.088; -320.841
684.468;  -33.762;  -73.088; -124.841
684.736;  -32.710; -214.088; -175.841
685.004; -119.708;-1024.088; -982.842
685.272;  -62.606; -880.088; -774.842
685.540;  -61.405; -499.087; -557.843
685.808;  -94.328; -651.087; -682.843
686.076; -108.526; -894.087; -969.843
686.343;  -61.124; -601.087; -815.844
686.611;   11.303; -195.087; -224.844
686.879;  378.255; -530.086; -553.844
687.147; 2954.982; -483.086; -480.845
687.414;  858.408;  -12.086; -169.845
687.682;  -13.965; -658.086; -757.846
687.950;  275.012;  259.915;  263.154
688.217;   -2.661; -792.085; -760.846
688.485;  -19.059; -632.085; -636.847
688.753;  443.568;  -11.085; -102.847
689.020;  151.895; -820.085; -851.847
689.288; -109.679; -853.084; -787.848
689.555;  -26.377; -195.084; -148.848
689.823;  -51.200; -241.084; -345.849
690.090;  -98.598; -546.084; -651.849
690.358; -147.646; -877.084; -897.849
690.625;   -3.994;  120.917;   45.150
690.892;  -82.642; -403.083; -369.850
691.160;  -31.016;   72.917;  -35.850
691.427;   -2.789;  141.917;  130.149
691.694; -138.037; -855.083; -929.851
691.962; -135.360;-1177.082;-1060.852
692.229;    9.917;  127.918;   56.148
692.496;   65.344;  130.918;  -49.852
692.763;    8.971; -164.082; -201.853
693.031;  -79.378; -739.082; -716.853
693.298;  -53.401; -509.081; -368.853
693.565;  242.801; -155.081; -163.854
693.832; 1148.328;   -5.081;   -9.854
694.099;  133.355; -643.081; -642.855
694.366;  -57.643; -882.081; -896.855
694.633;  -49.116; -920.080; -633.855
694.900;  717.910; 4367.920; -114.856
695.167;  390.112; -214.080; -380.856
695.434;   97.664; -646.080; -623.856
695.701;  186.841;  121.921;  -61.857
695.968;  431.043; -365.079; -361.857
696.234;  949.170; -415.079; -646.858
696.501;10530.022; -776.079; -614.858
696.768; 5657.598; -554.079; -617.858
697.035;  338.400; -632.078; -667.859
697.302;   37.352; -448.078; -552.859
697.568;    5.829; -458.078; -497.859
697.835;  -26.044; -683.078; -624.860
698.102;  -17.367; -498.078; -407.860
698.368;   72.485;  384.923;  396.139
698.635;  -28.989;  -47.077; -424.861
698.901;  -18.137; -240.077; -348.861
699.168;   52.140; -534.077; -456.862
699.435;   64.642;  -72.077;  -13.862
699.701; -114.656; -868.076; -764.862
699.968;   16.471;  144.924; -441.863
700.234;  -91.852; -783.076; -822.863
700.500;  -46.126; -448.076; -539.864
700.767;   -1.049;   -1.075;   26.136
701.033; -123.072;-1015.075; -963.864
701.299;  -58.970; -450.075; -483.865
701.566;  101.557;  950.925;  763.135
701.832;   19.984;  -31.075;  -76.865
702.098;  -98.464;-1054.074;-1034.866
702.365;  -95.263;-1098.074;-1030.866
702.631;  -33.711;-1038.074;-1063.867
702.897; 1229.841; -765.074; -676.867
703.163; 2199.418;  348.926;  254.133
703.429;  163.045; -256.073; -273.868
703.695;  -25.303; -796.073; -792.868
703.961;   27.549; -214.073; -210.868
704.227;  -46.450; -630.073; -725.869
704.493;  112.827;  613.927;  510.131
704.759;  -23.971; -565.072; -540.870
705.025;   37.381; -203.072; -194.870
705.291;   -6.967; -666.072; -562.870
705.557;  179.460;  719.928;   34.129
705.823;   58.736; -742.072; -694.871
706.089;  163.538; -307.071; -326.871
706.355;  373.190; -315.071; -244.872
706.620; 5786.767; -776.071; -729.872
706.886; 8487.444; -309.071; -362.873
707.152;  794.796; -818.070; -973.873
707.418;    9.523;-1153.070;-1186.873
707.683;    6.049; -550.070; -530.874
707.949;  -31.274; -547.070; -578.874
708.215;    0.728; -129.070; -207.874
708.480;  -30.520; -520.069; -420.875
708.746;   83.057;   68.931;   28.125
709.011;  -53.641; -578.069; -612.876
709.277;  -75.839; -538.069; -543.876
709.542;  -48.763; -428.069; -387.876
709.808;   -1.561;  -59.068;   89.123
710.073;  -71.559; -577.068; -695.877
710.339;  -30.557; -242.068; -228.877
710.604;   53.520; -780.068; -845.878
710.869;  305.197; -277.068; -366.878
711.135;  -77.601; -715.067; -628.879
711.400;  -67.050; -507.067; -608.879
711.665;  -62.398; -404.067; -479.879
711.931;  -79.121; -661.067; -677.880
712.196; -118.069; -876.067; -954.880
712.461;   79.158; -402.066; -490.880
712.726;  129.310; -727.066; -771.881
712.991;  -84.613; -647.066; -664.881
713.256;  -59.687; -350.066; -332.882
713.521;  -62.610; -417.065; -381.882
713.787;  -60.758; -454.065; -472.882
714.052;  -31.406; -214.065; -400.883
714.317; -101.104;-1045.065; -981.883
714.581; 1062.173; -374.065; -268.883
714.846; 1608.100; -822.064; -888.884
715.111;  144.276;  261.936;  257.116
715.376;  -29.547;  -86.064; -223.885
715.641;  -12.870; -365.064; -367.885
715.906;  274.057;   15.936; -551.885
716.171;  116.909;  221.937;  209.114
716.436;   24.711;  -78.063; -104.886
716.700; -102.387; -818.063; -692.886
716.965; -130.711; -794.063; -807.887
717.230;  -65.409; -339.063; -392.887
717.494;  -37.657;  -40.062; -134.888
717.759;  -89.955; -784.062; -640.888
718.024;   -3.028;  269.938;  250.112
718.288;   66.824;  685.938;  395.111
718.553; -149.624; -803.062; -977.889
718.817; -135.273; -883.061; -899.889
719.082;  -41.096; -115.061; -125.890
719.346; -137.244;-1000.061; -947.890
719.611;  -50.992; -300.061; -255.891
719.875;  -94.090; -568.060; -537.891
720.140;  -74.388; -453.060; -603.891
720.404;   26.714; -136.060; -249.892
720.668;  757.615; -475.060; -411.892
720.933;  323.467;  146.940;  137.108
721.197; -101.256; -667.059; -600.893
721.461; -130.479; -851.059; -826.893
721.725;   -1.302;  -21.059; -250.894
721.990;  -59.050; -284.059; -204.894
722.254;  -30.598;  -26.059; -108.894
722.518;  -68.447; -286.058; -442.895
722.782;  -96.945; -743.058; -594.895
723.046;  119.032;  614.942;  570.105
723.310;    7.059;  374.942;  210.104
723.574;  -85.289; -654.058; -614.896
723.838; -107.437; -576.057; -642.897
724.102;  -39.160; -226.057; -239.897
724.366; -140.884;-1032.057; -978.897
724.630;  -85.782; -749.057; -571.898
724.894;  -80.530; -722.057; -514.898
725.158;  -10.053;   38.944; -295.898
725.422;  -58.626; -394.056; -327.899
725.685;  -60.124; -441.056; -349.899
725.949;  -66.647; -566.056; -519.900
726.213;  -66.071; -732.056; -811.900
726.477;  146.406;-1020.055; -933.900
726.740;  148.133; -274.055; -104.901
727.004;  299.335; -384.055; -510.901
727.268; 3424.687; -442.055; -400.901
727.531; 1031.239; -961.055; -775.902
727.795;  -29.059; -713.054; -673.902
728.059;  -65.858; -552.054; -557.903
728.322;  -75.206; -841.054; -669.903
728.586;   26.221; -692.054; -701.903
728.849;  -79.477; -695.053; -756.904
729.112; -104.075; -812.053; -912.904
729.376; -118.348; -959.053; -905.904
729.639;  -66.746; -536.053; -536.905
729.903; -110.170; -733.053; -699.905
730.166;  -45.168; -437.052; -399.906
730.429;  -30.441; -317.052; -468.906
730.693;  -66.839; -355.052; -894.906
730.956;  177.988;  810.948;  651.093
731.219;  679.040; -310.052; -103.907
731.482;  102.717;-1003.051; -894.907
731.745;   84.793; -794.051; -935.908
732.009;   19.370;  -30.051;   50.092
732.272; -102.078; -904.051; -771.909
732.535;  -49.751; -300.051; -310.909
732.798; -158.899;-1083.050;-1166.909
733.061;  -61.547; -430.050; -456.910
733.324;   12.455;   31.950; -180.910
733.587;   67.131;  290.950;  365.090
733.850;  -75.492; -973.049;-1050.911
734.113;   18.485;   33.951;   32.089
734.376;   -7.163; -328.049; -447.912
734.639;  205.114; 1188.951; 1011.088
734.901;   55.741; -180.049; -402.912
735.164;  425.768; -883.048; -837.913
735.427; 1233.194; -166.048; -355.913
735.690;  111.046; -205.048; -234.913
735.952;  -32.052; -923.048; -925.914
736.215;  -29.250;-1113.048;-1009.914
736.478;   33.302; -771.047; -774.915
736.740;  198.454;   33.953;  129.085
737.003;  563.706; -658.047; -672.915
737.266; 3817.607;  -94.047;   46.084
737.528;  441.584; -682.047; -660.916
737.791;  342.686; -316.046; -327.916
738.053;  758.988;  465.954;  649.083
738.316;10514.215; -162.046; -136.917
738.578; 8300.117; -770.046; -736.918
738.841;  460.344; -382.046; -446.918
739.103;  187.995; -875.045; -777.918
739.365;  494.597;   79.955;  -69.919
739.628;    7.949; -884.045; -805.919
739.890;  -21.699; -758.045; -710.919
740.152;  -40.047; -692.044; -754.920
740.414;    5.830; -408.044; -359.920
740.677;  -42.743; -785.044; -634.921
740.939;  -46.642; -587.044; -487.921
741.201;  232.885; -432.044; -572.921
741.463;   34.037; -689.043; -745.922
741.725;    3.389;  -21.043; -199.922
741.987;   56.241;  220.957;  116.078
742.249;  -18.982; -751.043; -859.923
742.511;  183.694; -703.043; -794.923
742.773;    1.621; -546.042; -546.924
743.035;  133.798;  796.958;  533.076
743.297;  -61.450; -963.042;-1013.924
743.559;  693.477; -278.042; -262.925
743.821;   65.804; -735.042; -744.925
744.083;   13.381;  -44.041; -149.925
744.345;  -92.493; -869.041; -892.926
744.607;   33.109;   75.959;  122.074
744.868;  -59.239; -490.041; -554.927
745.130;  -99.912; -994.041;-1008.927
745.392;   38.040;   -1.040;  -44.927
745.653;   -7.283; -411.040; -378.928
745.915;  142.594;  896.960;  631.072
746.177;   55.095;   35.960;  -43.928
746.438;  -13.453; -428.040; -543.929
746.700;  -37.226; -947.039; -988.929
746.961;   15.651; -659.039; -740.930
747.223;  119.803; -190.039;  -74.930
747.484;   66.630; -391.039; -471.930
747.746;  143.982;  -23.038; -106.931
748.007;  118.933; -647.038; -689.931
748.269;  276.085; -468.038; -440.931
748.530;  455.837; -852.038; -638.932
748.791;  248.514; -354.038; -420.932
749.053;  414.466;  286.963;  163.067
749.314;  445.093; -236.037; -169.933
749.575;  477.420; -945.037; -905.933
749.836;  818.921; -217.037;   86.066
750.098; 2199.548;  -60.037;  -21.934
750.359;34435.800;  414.964;  555.066
750.620; 9839.252; -121.036; -220.935
750.881; 1026.679; -585.036; -513.935
751.142; 1301.206; -950.036; -938.936
751.403;15898.008; -789.036; -705.936
751.664; 8052.984;-1034.035; -999.936
751.925;  497.511; -175.035; -262.937
752.186;  276.463; -298.035; -278.937
752.447;  133.740; -590.035; -445.937
752.708;   47.492; -532.035; -648.938
752.969;    8.619; -566.034; -576.938
753.230;  -11.304; -777.034; -672.939
753.491;   -1.853; -650.034; -631.939
753.751;   58.674;  109.966;   19.061
754.012;   88.926;  258.967;  181.060
754.273;   49.153; -174.033;  -71.940
754.534;   -4.495; -487.033; -580.940
754.794;  -92.368; -926.033; -911.941
755.055;  140.534; 1051.967;  881.059
755.316;  -62.340; -700.032; -566.942
755.576;  -18.863; -606.032; -576.942
755.837;  -50.136; -527.032; -695.942
756.097;  -45.584; -530.032; -564.943
756.358;  -79.907; -725.032; -770.943
756.618;  -51.230; -705.031; -641.943
756.879;    1.022; -254.031; -349.944
757.139; -120.052;-1098.031;-1116.944
757.400;  -62.025; -538.031; -553.945
757.660;  -12.798; -365.031; -401.945
757.920;   -6.721; -266.030; -228.945
758.181;  -14.844; -468.030; -351.946
758.441;  -88.542; -870.030; -809.946
758.701;  -35.290; -308.030; -215.946
758.961;  -11.564; -220.030; -278.947
759.222;  -46.887; -574.029; -502.947
759.482;  -76.760; -683.029; -723.948
759.742;  -79.708; -706.029; -547.948
760.002;    0.494;  -83.029; -143.948
760.262;   35.496;   50.972;  182.051
760.522;  -36.252; -498.028; -574.949
760.782;  -54.101; -738.028; -612.949
761.042;  -32.299; -618.028; -573.950
761.302;   44.878;   55.972;  -18.950
761.562;   47.980; -164.027; -154.951
761.822;   71.482; -710.027; -551.951
762.082;  -47.391;-1104.027;-1093.951
762.342;   57.136; -328.027; -403.952
762.601;   77.412; -567.027; -506.952
762.861;  331.089; -281.026; -207.952
763.121;  409.816; -406.026; -411.953
763.381; 7016.068; -499.026; -485.953
763.640; 8959.695; -139.026; -307.954
763.900;  372.572; -242.026; -203.954
764.160;   80.474; -458.025; -491.954
764.419;   -2.775; -726.025; -782.955
764.679;  -57.798; -795.025; -726.955
764.939;  -16.996; -124.025; -210.955
765.198;  -77.744; -608.025; -563.956
765.458;  -81.592; -710.024; -612.956
765.717;  -81.140; -454.024; -590.957
765.976;  -53.488; -428.024; -411.957
766.236;  -82.612; -475.024; -610.957
766.495;   12.965;  260.977;   73.042
766.755;  -96.308;-1090.023; -987.958
767.014;   -4.256; -594.023; -665.958
767.273;  -45.979; -373.023; -397.959
767.533;  -39.402; -228.023; -307.959
767.792;  -31.675; -151.022; -188.960
768.051;  -56.974; -228.022; -276.960
768.310;  -72.872; -546.022; -650.960
768.569;   11.705; -161.022;    4.039
768.828;  -40.318; -285.022; -363.961
769.088; -104.616;-1050.021; -942.961
769.347;  -67.989; -755.021; -599.962
769.606; -103.812; -876.021; -857.962
769.865; -118.836;-1016.021;-1033.963
770.124;    5.216; -411.021; -336.963
770.383;  -42.557; -778.020; -910.963
770.641;    7.870; -398.020; -400.964
770.900;  -58.903; -953.020; -846.964
771.159;  -36.501; -851.020; -951.964
771.418;   -8.974; -917.020; -779.965
771.677;  139.002; -224.019; -293.965
771.936;  169.004; -794.019; -865.966
772.194; 2045.006; -465.019; -437.966
772.453;12046.658; -213.019; -391.966
772.712;  896.260;  416.982;  329.033
772.970;  113.587;   32.982;   63.033
773.229;   96.664;  -22.018;  102.033
773.488;  -73.335; -814.018; -770.968
773.746;   64.467;  296.982;  335.032
774.005;    0.019;  190.983;  -22.969
774.263;   -1.554;  243.983;  177.031
774.522;  -32.802; -422.017; -548.969
774.780;  -83.475; -484.017; -417.970
775.039;  -98.148; -551.017; -531.970
775.297;  -29.172; -135.016; -351.970
775.555;  -96.520; -489.016; -612.971
775.814; -113.468; -618.016; -570.971
776.072; -131.991; -749.016; -740.971
776.330;  -98.214; -630.016; -520.972
776.589; -129.212; -703.015; -721.972
776.847; -115.660; -645.015; -624.973
777.105; -163.084;-1016.015;-1032.973
777.363;  -71.007; -459.015; -454.973
777.621; -131.780; -660.015; -717.974
777.879;  -23.728;  -42.014;   32.026
778.138;  -97.376; -554.014; -717.974
778.396; -100.749; -585.014; -526.975
778.654; -157.998;-1015.014; -970.975
778.912;  -65.496; -269.014; -371.976
779.170; -138.669; -880.013; -803.976
779.427; -150.367; -922.013; -897.976
779.685; -136.815; -880.013; -832.977
779.943;  -75.113; -654.013; -593.977
780.201; -150.036; -964.012; -883.978
780.459; -123.785; -651.012; -610.978
780.717;  -77.558; -440.012; -390.978
780.974;  -99.756; -449.012; -490.979
781.232;  -78.354; -358.012; -338.979
781.490;  -73.752; -551.011; -472.979
781.747;  -92.525; -555.011; -476.980
782.005;    7.927;  462.989;  254.020
782.263; -173.997; -542.011;-1004.981
782.520;  -85.745; -326.011; -501.981
782.778; -162.368;-1013.010;-1051.981
783.035; -168.716; -962.010; -938.982
783.293;  -67.114; -248.010; -206.982
783.550;  -59.312; -134.010; -198.982
783.808; -147.210; -764.010; -776.983
784.065; -153.734; -745.009; -874.983
784.322;  -56.957;   25.991;  -86.984
784.580; -138.830; -915.009; -771.984
784.837;  -92.703; -392.009; -466.984
785.094; -121.676; -783.009; -762.985
785.352;  -84.099; -304.008; -404.985
785.609; -104.147; -934.008; -839.985
785.866;  -81.296; -345.008; -401.986
786.123;  -83.119; -639.008; -583.986
786.380; -111.417; -665.008; -604.987
786.637;  -51.665; -225.007; -380.987
786.895;  -36.138; -456.007; -543.987
787.152;  -63.036; -135.007; -267.988
787.409;  -42.484; -123.007; -225.988
787.666;  -87.858; -299.006; -378.988
787.923; -119.706; -616.006; -695.989
788.179; -110.754; -551.006; -584.989
788.436; -110.252; -585.006; -585.990
788.693;  -44.850;  -92.006;  -87.990
788.950;   99.377; -125.005; -112.990
789.207;  216.679; -381.005; -372.991
789.464;  -46.045; -161.005; -301.991
789.720;  -26.743;  150.995;  110.009
789.977; -174.241;-1003.005; -671.992
790.234;  -42.289;   44.996;  -66.992
790.490; -145.462; -884.004;-1031.993
790.747;  -19.635;  -85.004;   22.007
791.004;  -30.858; -426.004; -348.993
791.260;  -70.207; -430.004; -560.994
791.517;  -95.755; -843.003; -788.994
791.773;  -54.928; -379.003; -342.994
792.030; -108.351; -596.003; -660.995
792.286;  -98.474; -686.003; -636.995
792.543;  -18.397;  -74.002; -159.995
792.799;  -45.420; -584.002; -382.996
793.055; -161.194;-1179.002;-1210.996
793.312;  -88.867; -827.002; -816.997
793.568;  -75.740; -746.002; -599.997
793.824;    4.987; -226.001; -284.997
794.081;   20.389; -447.001; -508.998
794.337;   62.416; -664.001; -561.998
794.593; 1103.418; -319.001; -271.999
794.849; 6722.944; -746.001; -772.999
795.105;  387.196; -270.000; -261.999
795.361;   29.948; -490.000; -457.000
795.617;  -57.475; -875.000; -945.000
795.873;  -46.725; -360.000; -407.000
796.129;  -43.775; -368.000; -306.000
796.385;  -20.825; -124.000; -156.000
796.641;   63.975;  412.000;  550.000
796.897;  -84.625; -666.000; -635.000
797.153;   70.075;  453.000;  357.000
797.409; -100.450; -785.000; -868.000
797.665;  -75.250; -625.000; -732.000
797.921;  -60.800; -775.000; -762.000
798.176;  -45.825; -744.000; -747.000
798.432;  -41.900; -824.000; -596.000
798.688;  -60.225;-1174.000;-1078.000
798.943;   74.450; -165.000; -147.000
799.199;    3.175;-1005.000; -959.000
799.455;  232.550;  369.000;  316.000
799.710;  135.400; -813.000; -380.000
799.966;  327.275; -162.000; -160.000
800.221;  489.425; -638.000; -721.000
800.477; 9754.725; -743.000; -710.000
800.732;10489.825; -773.000; -800.000
800.988;  696.300;  205.000;  -19.000
801.243; 1768.225; -454.000; -344.000
801.498; 9150.000; -814.000; -739.000
801.754;  583.975; -289.000; -163.000
802.009;  118.725; -257.000; -335.000
802.264;  -35.850; -967.000;-1033.000
802.520;   28.175;  222.000;   -3.000
802.775;  -44.100; -524.000; -359.000
803.030;   57.850;  395.000;  356.000
803.285; -105.175; -840.000; -903.000
803.540;  -57.400; -686.000; -699.000
803.795;  -46.125; -648.000; -583.000
804.051;  -35.675; -279.000; -346.000
804.306;    8.625;  168.000;  128.000
804.561;  129.050;  451.000;  362.000
804.816;  129.775;  714.000;  861.000
805.071;    6.050; -185.000; -280.000
805.325;  198.850; -257.000; -427.000
805.580;  -95.325; -841.000; -877.000
805.835;  -30.325; -204.000; -297.000
806.090;  -79.800; -760.000; -676.000
806.345;  -14.900; -344.000; -264.000
806.600;  -31.200; -549.000; -632.000
806.854;  -38.250; -408.000; -538.000
807.109;  -27.150; -493.000; -577.000
807.364;    8.375; -407.000; -328.000
807.618;   -8.825; -415.000; -381.000
807.873;   51.800; -470.000; -494.000
808.128;  105.125; -257.000; -518.000
808.382;  115.425; -224.000; -332.000
808.637;   81.175; -440.000; -511.000
808.891;  184.450; -257.000; -180.000
809.146;  104.825; -902.000; -794.000
809.400;  259.225; -848.000; -923.000
809.654;  323.625; -779.000; -551.000
809.909;  489.025; -841.000; -927.000
810.163; 5526.200; -813.000; -651.000
810.418;17233.900; -940.000; -861.000
810.672; 1136.900; -685.000; -690.000
810.926;  744.850; -993.000; -973.000
811.180; 1404.425; -439.000; -372.000
811.434;31779.925;  240.000;  135.000
811.689;15612.925; -231.000; -365.000
811.943;  719.675; -936.000; -953.000
812.197;  369.450; -893.000; -671.000
812.451;  149.650; -379.000; -514.000
812.705;    1.175; -809.000; -619.000
812.959;   13.775; -263.000; -388.000
813.213;    5.000; -283.000; -209.000
813.467;   48.700;  470.000;  253.000
813.721; -101.575; -764.000; -792.000
813.975; -114.150; -826.000; -877.000
814.229;   57.600;  430.000;  353.000
814.482;  -62.775; -517.000; -566.000
814.736; -103.975; -766.000; -744.000
814.990; -136.100; -779.000; -872.000
815.244;  -45.800; -228.000; -285.000
815.497; -101.750; -636.000; -601.000
815.751;  -14.550; -141.000;   82.000
816.005;  -76.675; -470.000; -586.000
816.258;  -63.500; -510.000; -363.000
816.512; -120.500; -693.000; -610.000
816.766;   -3.500;  121.000;  157.000
817.019;   14.675;  148.000;  149.000
817.273; -101.650;-1000.000; -802.000
817.526;  -23.950; -206.000; -173.000
817.779;  -61.700;-1049.000; -960.000
818.033;  -76.025; -693.000; -807.000
818.286; -113.325; -725.000; -792.000
818.540;  -85.975; -403.000; -403.000
818.793;  -70.275; -402.000; -489.000
819.046; -113.075; -582.000; -520.000
819.299;  -53.025; -157.000; -166.000
819.553; -124.150; -552.000; -592.000
819.806; -155.075;-1016.000; -838.000
820.059;  -50.500; -334.000; -354.000
820.312;    3.550;  152.000;  185.000
820.565;  -37.400;  110.000;  -27.000
820.818;  -58.300;  -59.000; -173.000
821.071; -167.275;-1041.000; -957.000
821.324; -118.775; -536.000; -540.000
821.577;  -99.775; -457.000; -483.000
821.830;  -55.225; -270.000; -172.000
822.083; -130.500; -733.000; -288.000
822.336;  -35.850; -261.000; -167.000
822.589; -147.975; -805.000; -688.000
822.842; -134.125; -875.000; -770.000
823.094; -171.050;-1076.000;-1114.000
823.347; -123.000; -925.000; -729.000
823.600;   10.175;  402.000;  187.000
823.853;  -46.350; -311.000; -267.000
824.105;  -65.525; -331.000; -575.000
824.358; -101.625; -617.000; -716.000
824.611;   16.950;  234.000;   40.000
824.863;  -49.225; -612.000; -591.000
825.116;   51.775;  -33.000;   27.000
825.368;   76.075; -366.000; -372.000
825.621;  149.725; -186.000; -240.000
825.873;   84.675; -704.000; -737.000
826.126;  522.975; -669.000; -641.000
826.378;11145.975; -389.000; -505.000
826.630; 3452.875; -890.000; -898.000
826.883;   67.600; -754.000; -693.000
827.135;   45.125; -279.000; -270.000
827.387;  -95.675; -893.000; -839.000
827.639;  -38.675;  -86.000;   32.000
827.892; -120.950; -742.000; -582.000
828.144; -132.600; -848.000; -804.000
828.396;  -32.050;  104.000;  -80.000
828.648; -107.350; -440.000; -333.000
828.900; -138.900; -702.000; -795.000
829.152; -115.350; -684.000; -683.000
829.404;  -60.575; -215.000; -267.000
829.656;  -19.575;  321.000;  214.000
829.908;  -28.125;  393.000;  229.000
830.160; -166.150;-1064.000;-1047.000
830.412;  -86.825; -481.000; -430.000
830.664; -123.750; -557.000; -665.000
830.916;  -71.250; -268.000; -206.000
831.167; -174.700;-1073.000; -951.000
831.419; -102.925; -623.000; -566.000
831.671; -140.100; -764.000; -809.000
831.923;  -91.725; -311.000; -447.000
832.174;  -76.400; -273.000; -331.000
832.426; -125.600; -493.000; -582.000
832.678; -194.650;-1043.000;-1091.000
832.929; -150.925; -947.000; -935.000
833.181;  -57.675; -575.000; -677.000
833.432;  -56.950;  -59.000; -186.000
833.684;  -33.925;  112.000;  -27.000
833.935; -121.850; -610.000; -566.000
834.187; -114.300; -829.000; -823.000
834.438;  -64.125;  -58.000;  -25.000
834.689;  -73.100; -255.000; -123.000
834.941;  -56.700; -343.000; -244.000
835.192; -101.875; -590.000; -533.000
835.443; -117.600; -419.000; -506.000
835.695;  -31.225;  138.000;  -16.000
835.946; -111.025; -608.000; -378.000
836.197; -110.225; -599.000; -622.000
836.448;  -86.375; -528.000; -395.000
836.699;  -86.525; -253.000; -341.000
836.950;    2.900;   72.000;    7.000
837.201; -137.900;-1003.000; -987.000
837.452;  -54.550; -356.000; -170.000
837.703; -122.675; -791.000; -737.000
837.954;  -48.575; -205.000; -365.000
838.205;  -85.475;-1029.000;-1008.000
838.456;  164.600; -196.000; -282.000
838.707;    5.325; -423.000; -519.000
838.958;   -4.475; -634.000; -647.000
839.209;  273.450;   18.000;   40.000
839.460;  116.100; -439.000; -201.000
839.710;  155.600; -135.000; -297.000
839.961;  414.825;  730.000;  612.000
840.212;  321.950; -382.000; -497.000
840.462; 1050.625; -328.000; -277.000
840.713;16976.350; -571.000; -536.000
840.964; 8455.575;  -62.000; -143.000
841.214;  503.775; -384.000; -624.000
841.465;  536.175; -214.000; -141.000
841.715;  473.525; -417.000; -380.000
841.966;  590.275; -746.000; -685.000
842.216; 7295.750; -330.000; -431.000
842.466;33441.200; -169.000; -313.000
842.717; 2324.225; -964.000; -952.000
842.967;  289.650; -635.000; -641.000
843.217;  252.725;   20.000;   28.000
843.468;   60.950; -104.000; -132.000
843.718;  -48.475; -718.000; -726.000
843.968;  -92.600; -837.000; -765.000
844.218;    5.800; -315.000; -262.000
844.469;  -43.875; -577.000; -561.000
844.719; -111.650; -537.000; -682.000
844.969; -101.400; -550.000; -580.000
845.219; -153.725; -814.000; -862.000
845.469;  -73.750; -392.000; -342.000
845.719; -139.200; -792.000; -884.000
845.969;  -29.050;  119.000;  174.000
846.219; -125.025; -738.000; -720.000
846.469;   12.850;  464.000;  432.000
846.718;  -48.800; -115.000;   31.000
846.968; -135.300; -827.000; -827.000
847.218;  -48.600; -224.000; -371.000
847.468; -104.975; -586.000; -555.000
847.718; -141.975; -827.000; -798.000
847.967; -127.400; -826.000; -915.000
848.217;  -86.050; -449.000; -569.000
848.467;  -60.075; -405.000; -376.000
848.716; -113.075; -708.000; -725.000
848.966;    0.750; -372.000; -358.000
849.215;  -71.125; -428.000; -419.000
849.465;  -92.350; -785.000; -615.000
849.714; -141.800;-1132.000;-1150.000
849.964;  -55.175; -551.000; -613.000
850.213;  -32.850; -393.000; -355.000
850.463;   81.975;  137.000;  340.000
850.712;   -0.100; -542.000; -567.000
850.961;   17.075; -739.000; -678.000
851.211;  113.350; -513.000; -504.000
851.460;  171.450; -635.000; -650.000
851.709;  535.625;  -25.000;   18.000
851.958; 9485.125; -912.000; -750.000
852.208;14286.300; -859.000; -879.000
852.457;  565.650; -181.000;  -13.000
852.706;   76.400; -791.000; -823.000
852.955;   22.250; -507.000; -528.000
853.204;  -74.625; -521.000; -461.000
853.453;  -88.625; -418.000; -458.000
853.702; -134.575; -660.000; -750.000
853.951; -115.625; -532.000; -520.000
854.200; -118.925; -613.000; -562.000
854.449; -128.975; -695.000; -661.000
854.698; -106.100; -340.000; -279.000
854.946;  -70.350; -181.000; -284.000
855.195; -159.150; -843.000; -868.000
855.444;  -84.825; -395.000; -420.000
855.693; -122.100; -345.000; -432.000
855.941; -117.000; -387.000; -516.000
856.190;  -58.675; -256.000; -382.000
856.439; -126.050; -652.000; -703.000
856.687;  -57.075;  -99.000;  -72.000
856.936; -114.225; -621.000; -323.000
857.184; -185.550;-1067.000;-1020.000
857.433; -106.700; -423.000; -512.000
857.681; -174.400; -989.000; -953.000
857.930;  -67.300; -282.000; -433.000
858.178; -166.575; -856.000; -929.000
858.427; -138.625; -802.000; -781.000
858.675; -109.175; -377.000; -544.000
858.923; -111.300; -527.000; -819.000
859.172; -168.775;-1094.000;-1070.000
859.420;  -85.275; -339.000; -239.000
859.668; -134.200; -624.000; -628.000
859.916;  -27.775;  109.000;  115.000
860.164; -114.725; -699.000; -603.000
860.413;  191.000; -878.000; -696.000
860.661;  219.425; -709.000; -577.000
860.909;  -82.400; -339.000; -325.000
861.157;  -92.350; -277.000; -444.000
861.405; -110.975; -534.000; -670.000
861.653;   -5.300;  310.000;  310.000
861.901;  134.875; -543.000; -613.000
862.149;    5.025; -801.000; -824.000
862.396;  -85.675; -297.000; -187.000
862.644;  -93.100; -368.000; -347.000
862.892;  -40.000;   98.000;  138.000
863.140; -118.175; -549.000; -530.000
863.388; -161.725; -815.000; -759.000
863.635; -127.075; -642.000; -601.000
863.883;  -20.400;  231.000;  190.000
864.131;  -99.825; -288.000; -357.000
864.378; -134.100; -675.000; -540.000
864.626; -117.550; -347.000; -415.000
864.873; -120.825; -556.000; -505.000
865.121; -138.750; -714.000; -799.000
865.368;  -46.075; -173.000;   75.000
865.616;  -42.000;  -33.000;  -40.000
865.863;  -66.775; -462.000; -506.000
866.111; -111.050; -795.000; -824.000
866.358;   36.600; -426.000; -420.000
866.605; 2284.800;  -64.000; -804.000
866.853; 2915.525; -621.000; -537.000
867.100;   14.450; -728.000; -775.000
867.347;  -93.800; -672.000; -611.000
867.594;  -90.750; -740.000; -714.000
867.841;   84.400;   97.000;   17.000
868.089; -141.325; -746.000; -698.000
868.336; -119.600; -477.000; -420.000
868.583; -138.800; -637.000; -741.000
868.830;  -60.300; -131.000; -170.000
869.077; -164.075; -859.000; -787.000
869.324; -116.050; -502.000; -458.000
869.571; -128.400; -398.000; -430.000
869.818; -119.750; -485.000; -439.000
870.065; -109.200; -439.000; -513.000
870.311; -117.875; -456.000; -542.000
870.558;  -99.800; -332.000; -311.000
870.805;  -80.150; -320.000; -384.000
871.052; -105.075; -494.000; -369.000
871.298;  -63.050; -204.000; -131.000
871.545;  -79.125; -151.000; -185.000
871.792;  -96.675; -173.000; -222.000
872.038;  -68.225;   43.000; -126.000
872.285; -119.600; -496.000; -387.000
872.532;  -96.900; -357.000; -387.000
872.778;    0.525;  556.000;  403.000
873.025; -104.475; -384.000; -359.000
873.271;    5.675;  501.000;  578.000
873.517;  -44.025; -133.000; -209.000
873.764;  -30.525; -193.000;  -80.000
874.010;  -65.900; -143.000; -230.000
874.257;  -53.300;  123.000;   90.000
874.503; -137.525; -579.000; -479.000
874.749;  -74.975;   31.000;  275.000
874.995;  -78.700;  -80.000;  -20.000
875.242; -128.600; -540.000; -478.000
875.488; -120.950; -414.000; -439.000
875.734;  -59.050; -106.000; -234.000
875.980;  113.800; -872.000;-1032.000
876.226;  361.275; -157.000; -255.000
876.472;   -4.350;  343.000;  237.000
876.718;  -48.025;  184.000;  158.000
876.964;  -51.275;   56.000;   55.000
877.210; -143.875; -547.000; -677.000
877.456; -141.775; -630.000; -557.000
877.702; -176.400; -821.000; -832.000
877.948; -108.825; -377.000; -497.000
878.193;  -23.225;  361.000;  255.000
878.439;  -91.575; -487.000; -472.000
878.685; -101.350; -272.000; -343.000
878.931; -122.550; -618.000; -676.000
879.176;  -77.675; -201.000; -201.000
879.422; -178.475; -933.000; -820.000
879.668;   44.150;   10.000;   79.000
879.913;  126.350;   53.000;  137.000
880.159;  -61.500; -112.000;  -17.000
880.404;  -65.600; -152.000; -162.000
880.650;  -39.250;   91.000;  141.000
880.895; -155.075; -670.000; -710.000
881.141; -128.425; -454.000; -428.000
881.386; -152.950; -503.000; -658.000
881.631;  -80.700; -311.000; -166.000
881.877;  -32.200;  112.000;  -13.000
882.122; -141.100; -684.000; -600.000
882.367;  -76.900; -136.000; -186.000
882.612;  -80.100;  -80.000; -176.000
882.858; -170.800; -877.000; -823.000
883.103;  -93.500; -297.000; -267.000
883.348; -149.600; -759.000; -852.000
883.593; -141.475; -677.000; -602.000
883.838;  -58.475; -311.000;  -24.000
884.083;   10.200;  353.000;  288.000
884.328;  -92.075; -564.000; -545.000
884.573;  -54.225; -196.000; -143.000
884.818;  132.225; -694.000; -531.000
885.063;  182.425; -348.000; -315.000
885.308; -112.975; -475.000; -398.000
885.553;  -22.250;  245.000;  325.000
885.797; -136.350; -545.000; -615.000
886.042;  -57.475;    8.000;   58.000
886.287;  -95.675; -253.000; -211.000
886.532;  -48.350;   26.000;  204.000
886.776; -105.250; -407.000; -525.000
887.021; -142.200; -621.000; -574.000
887.265; -145.325; -685.000; -689.000
887.510; -137.125; -557.000; -496.000
887.755; -107.900; -194.000; -164.000
887.999; -138.375; -552.000; -575.000
888.244;  -74.200;  -58.000;  161.000
888.488;   -7.025;  371.000;  393.000
888.732; -132.900; -368.000; -520.000
888.977; -128.200; -622.000; -567.000
889.221; -147.875; -683.000; -659.000
889.465; -119.175; -422.000; -566.000
889.710;  -71.800;  -56.000; -299.000
889.954;    7.375;  579.000;  467.000
890.198; -139.525; -584.000; -707.000
890.442; -154.725; -716.000; -712.000
890.687; -166.600; -800.000; -753.000
890.931; -104.550; -273.000; -210.000
891.175; -131.525; -502.000; -500.000
891.419;  -87.125; -105.000; -110.000
891.663;  -86.475; -239.000; -112.000
891.907; -157.575; -801.000; -545.000
892.151; -168.325; -920.000; -815.000
892.395; -118.550; -274.000; -387.000
892.638;  -41.125;  408.000;  291.000
892.882; -173.300; -780.000; -867.000
893.126;   14.800;  758.000;  558.000
893.370;  -84.975; -167.000; -168.000
893.614; -138.425; -714.000; -715.000
893.857; -116.950; -183.000; -197.000
894.101; -146.075; -527.000; -631.000
894.345;  -61.475;  300.000;  150.000
894.588;   10.600;  569.000;  380.000
894.832;  -69.700; -178.000;  -84.000
895.075;  -85.200;   15.000;  -92.000
895.319; -143.025; -552.000; -420.000
895.563; -109.300; -413.000; -353.000
895.806; -144.600; -628.000; -741.000
896.049;  -79.975; -576.000; -368.000
896.293;   81.300;  527.000;  405.000
896.536;  -71.800; -465.000; -468.000
896.779;  -66.850; -149.000;   -1.000
897.023; -142.575; -751.000; -714.000
897.266;  -35.825;  325.000;  269.000
897.509; -187.250; -900.000; -901.000
897.752;  -49.100;  149.000;  171.000
897.996; -177.250; -972.000; -864.000
898.239;  -46.350;  168.000;  102.000
898.482; -141.200; -431.000; -453.000
898.725;  -59.025;  101.000;   53.000
898.968; -156.675; -609.000; -744.000
899.211; -115.525; -513.000; -361.000
899.454; -130.550; -633.000; -539.000
899.697;  -62.175;   90.000;  -43.000
899.940; -179.550; -761.000; -757.000
900.182; -108.300; -335.000; -405.000
900.425;  -98.275; -150.000; -298.000
900.668;  -23.950;  491.000;  350.000
900.911; -105.700; -292.000; -345.000
901.154;  -59.275;  141.000;   -3.000
901.396; -144.500; -407.000; -412.000
901.639; -141.375; -430.000; -496.000
901.882; -180.450; -790.000; -809.000
902.124;  -88.600;  -29.000; -143.000
902.367; -108.975; -315.000; -361.000
902.609; -140.250; -476.000; -453.000
902.852;  -91.650; -108.000; -260.000
903.094; -120.900; -458.000; -337.000
903.337;  -69.175;  -26.000;   53.000
903.579; -114.375; -228.000; -441.000
903.821; -153.150; -597.000; -744.000
904.064;  -62.750;   85.000;  127.000
904.306;  -87.075; -126.000; -166.000
904.548; -104.450; -152.000; -366.000
904.790; -114.775; -195.000; -340.000
905.033; -131.575; -625.000; -577.000
905.275; -133.775; -513.000; -524.000
905.517;    9.375;  468.000;  256.000
905.759;  -86.100; -667.000; -761.000
906.001; -104.975; -322.000; -369.000
906.243;  -72.350; -162.000; -224.000
906.485;   81.125; -265.000; -207.000
906.727;   99.200; -499.000; -542.000
906.969;  -31.550;  -30.000; -135.000
907.211;   89.725; -316.000; -382.000
907.453;  233.975; -188.000; -237.000
907.695;   16.800; -158.000; -385.000
907.936;   51.575;  818.000;  706.000
908.178;  -68.550;   92.000; -135.000
908.420;  -80.000; -111.000; -162.000
908.662; -141.425; -633.000; -682.000
908.903;  -92.800; -208.000; -123.000
909.145;  -58.100; -240.000; -305.000
909.386;  -16.600;  315.000;  280.000
909.628;   28.400;  363.000;  397.000
909.870;   -3.175;   29.000;  264.000
910.111;  -93.625; -809.000; -949.000
910.353;    8.375; -123.000; -161.000
910.594;   -4.525; -574.000; -606.000
910.835;   78.425; -265.000; -326.000
911.077;  142.725; -503.000; -604.000
911.318;  276.525; -505.000; -471.000
911.559;  459.675; -577.000; -880.000
911.801; 1309.600; -284.000; -280.000
912.042; 9540.525;  -50.000; -159.000
912.283;28391.875;  404.000;  371.000
912.524; 5289.550; -396.000; -457.000
912.765;  570.850; -193.000;   79.000
913.006;  256.700; -307.000; -338.000
913.247;   70.625; -270.000; -290.000
913.488;   -3.775;  -43.000;   30.000
913.729;  -80.675; -373.000; -373.000
913.970;  -62.250;  -96.000; -292.000
914.211;  -71.775; -160.000; -198.000
914.452;  -75.500; -118.000;  -11.000
914.693;   10.200;  510.000;  592.000
914.934;   21.400;  510.000;  440.000
915.175;  -68.300;   53.000;  -95.000
915.415;  -84.725; -137.000;   27.000
915.656;  -62.950;  -28.000;  192.000
915.897;  -97.400; -252.000;  -82.000
916.137;  -63.275;   74.000;   -9.000
916.378; -137.550; -573.000; -517.000
916.619;  -82.975; -159.000;  -63.000
916.859;  -25.700;  303.000;  330.000
917.100;  127.400; 1655.000; 1070.000
917.340;   45.100;  930.000;  728.000
917.581;   55.725;  965.000;  789.000
917.821;  -41.350; -171.000;  143.000
918.061;   14.350; -199.000;  -72.000
918.302;  -65.375; -152.000; -211.000
918.542;  -26.850;  -22.000;    3.000
918.782;   23.225;  369.000;  377.000
919.023;  123.950;  360.000;  427.000
919.263; 1242.525; 8131.000;  202.000
919.503; 1108.675; -137.000;  -54.000
919.743;  581.975;  390.000;  266.000
919.983;  277.975; -134.000;  -26.000
920.223;  101.825;  135.000;   14.000
920.463;  143.325;  631.000;  554.000
920.703;  145.275;   84.000;   39.000
920.943;  174.875; -110.000;   90.000
921.183;  240.650; -414.000; -405.000
921.423;  528.675;  307.000;  546.000
921.663;  783.400; -174.000; -257.000
921.903; 1580.000;  237.000;  173.000
922.143; 8442.425;  372.000;  389.000
922.383;34881.075;  158.000;  115.000
922.622;14231.725; -120.000;  -15.000
922.862; 1475.000;  796.000;  785.000
923.102;  515.050;  -51.000;   33.000
923.341;  204.275;   59.000;   74.000
923.581;  101.000;  450.000;  360.000
923.821;   36.125;  301.000;  398.000
924.060;   -1.575;  351.000;  193.000
924.300;  -55.650;  -16.000; -128.000
924.539;   -5.375;  584.000;  473.000
924.779;    7.975;  812.000;  597.000
925.018;  -63.075;  247.000;  353.000
925.257;   -1.625;  595.000;  666.000
925.497;  -49.850;  447.000;  412.000
925.736;  -69.375;  -35.000;  102.000
925.975;   -4.400;  687.000;  669.000
926.214;   29.325;  907.000;  850.000
926.454;   31.825;  706.000;  757.000
926.693;  -62.525;  419.000;  543.000
926.932;   25.075; 1021.000;  825.000
927.171;   50.325; 1107.000; 1044.000
927.410;   52.700; 1144.000;  967.000
927.649;   25.700;  924.000;  742.000
927.888;  -19.575;  590.000;  564.000
928.127;   -7.250;  680.000;  678.000
928.366;   21.975;  842.000;  826.000
928.605;   34.875;  831.000;  737.000
928.844;  192.050; 1451.000; 1393.000
929.083;  573.950;  770.000;  613.000
929.321;  348.050; 1335.000; 1359.000
929.560;   81.025; 1158.000; 1122.000
929.799;  -31.600;  574.000;  475.000
930.038;   84.475; 1025.000; 1394.000
930.276;  -58.225;  334.000;  397.000
930.515;    0.775;  827.000;  681.000
930.753;  -20.925;  614.000;  589.000
930.992;  -24.625;  664.000;  717.000
931.230;   -5.575;  847.000;  847.000
931.469;  164.400; 2162.000;  892.000
931.707;   60.200;  840.000;  751.000
931.946;   52.750; 1278.000; 1344.000
932.184;   53.550; 1437.000; 1175.000
932.423;   53.375; 1265.000;  963.000
932.661;   77.025; 1296.000; 1428.000
932.899;   33.700;  987.000;  821.000
933.137;   17.200;  754.000;  564.000
933.376;  145.075; 1664.000; 1335.000
933.614;  146.175; 1759.000; 1196.000
933.852;   68.725; 1357.000; 1171.000
934.090;  127.000; 1722.000; 1747.000
934.328;  101.700; 1252.000; 1457.000
934.566;   77.275; 1431.000; 1110.000
934.804;  151.950; 1263.000; 1309.000
935.042;  482.800; 1861.000; 1850.000
935.280; 1920.500; 2088.000; 2063.000
935.518; 2101.450; 2113.000; 2007.000
935.756;  431.800; 2481.000; 2316.000
935.994;  169.200; 1808.000; 1751.000
936.231;  330.075; 2890.000; 2950.000
936.469;  181.650; 2367.000; 2378.000
936.707;  170.050; 2220.000; 2167.000
936.945;  218.475; 2825.000; 2882.000
937.182;  197.500; 2679.000; 2741.000
937.420;  288.350; 3602.000; 3031.000
937.657;  397.400; 3365.000; 3478.000
937.895;  343.625; 3331.000; 3488.000
938.133;  301.325; 3540.000; 3528.000
938.370;  346.975; 3896.000; 4191.000
938.607;  396.275; 4488.000; 4205.000
938.845;  537.925; 5587.000; 5549.000
939.082;  481.550; 5387.000; 5177.000
939.320;  543.525; 5799.000; 5728.000
939.557;  627.950; 6549.000; 6491.000
939.794;  693.850; 7285.000; 7097.000
940.031;  897.275; 8421.000; 8368.000
940.269; 1095.450; 9552.000; 9107.000
940.506; 1112.700;10901.000;10507.000

