
Integration time [ms]: 100.000
Averaging Nr. [scans]: 40
Smoothing Nr. [pixels]: 0
Data measured with spectrometer [name]: 2101013U2
Wave   ;Sample   ;Dark     ;Reference
[nm]   ;[counts] ;[counts] ;[counts] 

394.013;   39.843; -450.257; -315.536
394.305;  204.241; -461.258; -419.536
394.596; 1127.088; -676.269; -527.514
394.887; 2815.055; -796.268; -654.518
395.178; 1089.510;  145.736;   11.476
395.470;   73.172; -210.263; -356.526
395.761;  186.995;  305.734;  394.479
396.052;  283.463; -545.284; -306.489
396.343;  290.383; -557.276; -454.503
396.634;   98.902; -200.279; -290.497
396.926;   86.602; -618.268; -565.517
397.217;  104.612;   11.725;  -17.504
397.508;   43.878; -366.273; -154.507
397.799;   40.277; -555.279; -571.497
398.090;    0.346; -973.280; -902.495
398.381;  107.988;   11.708;  -11.473
398.672;  -13.511; -585.292; -742.473
398.963;   31.783; -348.279; -373.498
399.254;  113.023;   54.709; -209.475
399.545;  -32.409;-1017.266; -883.520
399.836;   63.397; -407.277; -343.501
400.127;   60.439; -205.295; -209.468
400.418;   43.523; -423.274; -392.506
400.709;   47.108; -359.281; -333.493
401.000;   37.527; -268.291; -309.476
401.290;  105.226;  225.698;  115.545
401.581;   45.246; -166.286; -228.485
401.872;    2.286; -542.298; -486.462
402.163;   64.607; -313.296; -252.467
402.454;   76.949; -123.291; -163.475
402.744;   72.348; -844.297; -813.465
403.035;  409.979; -226.293;  -86.471
403.326;  513.467; -366.292; -384.474
403.617;  355.330;  204.701;  165.539
403.907;  248.219; -593.283; -679.490
404.198; 2452.455; -545.307; -599.446
404.489; 6381.724; -618.283; -588.491
404.779; 2092.854; -618.302; -660.456
405.070;  233.583;  -67.304; -174.451
405.360;  352.031; -259.293; -238.472
405.651;  380.315;  125.699;   98.542
405.942;  181.741;  209.714;  127.516
406.232;  227.280; -432.285; -413.487
406.523;  439.399;  641.706;  758.530
406.813;   76.268; -579.286; -644.484
407.104;  308.162;  261.708;  144.527
407.394;  159.357; -604.299; -591.462
407.685;  154.530;  336.715;  222.513
407.975;   53.172; -400.283; -382.490
408.265;  108.863; -134.289; -190.478
408.556;   67.346; -472.291; -459.475
408.846;  167.950;  474.706;  429.530
409.137;   89.897;   -1.288; -216.480
409.427;   66.530; -193.285; -271.487
409.717;   39.856; -776.273; -692.508
410.007;  148.474;    4.715; -170.486
410.298;   86.142; -360.295; -342.469
410.588;   50.603; -495.285; -510.486
410.878;   21.858; -792.287; -873.482
411.168;  115.914; -481.298; -478.463
411.459;  126.942; -295.283; -242.489
411.749;   73.619; -609.292; -507.474
412.039;   64.745; -755.289; -386.480
412.329;  201.740;   40.722;  132.501
412.619;  186.093;  -62.286; -148.485
412.909;  362.566;  639.711;  594.521
413.199;  316.746; -130.280; -251.495
413.490;  389.981;  521.710;  352.523
413.780;  144.725;-1013.279; -913.496
414.070;  326.109;  -46.276;  235.497
414.360;  349.961; -729.278; -666.498
414.650;  421.279; -726.288; -688.482
414.940;  542.449; -538.280; -441.496
415.230;  928.076;   50.712;   74.519
415.520; 6187.187;  155.730;   66.486
415.809;24371.083; -305.281; -125.493
416.099;18787.324; -388.277; -229.501
416.389; 5303.470;  435.726;  236.494
416.679; 3138.625;   91.738;   85.473
416.969;  531.412; -527.287; -503.483
417.259;  461.027;  341.721;  171.503
417.549;  696.506;  522.718;  318.508
417.838; 1661.054; -205.268; -147.518
418.128; 5628.237;  650.710;  492.522
418.418; 4685.788; -491.272; -579.509
418.708; 3151.771;    9.726;  -48.506
418.997;12011.991; -474.275; -480.505
419.287;12460.202; -733.273; -790.507
419.577;11901.516; -160.283; -123.489
419.866;39191.372; -588.277; -498.501
420.156;39971.183; -242.270;  -55.513
420.446; 7091.643; -112.263;  -26.526
420.735;  830.277; -376.271; -446.512
421.025;  842.410; 1830.722;  315.502
421.314;  643.225; -203.271; -226.512
421.604; 1288.122;   89.732;  233.484
421.893;  729.797; -705.271; -602.511
422.183;  221.668; -487.263; -461.526
422.472;  374.598;  -36.271; -107.511
422.762;  443.072; -416.266; -379.521
423.051;  259.384; -916.276; -916.503
423.341;  317.954; -491.273; -439.507
423.630;  404.053; -121.265;   15.477
423.919;  383.416;   58.725;   49.495
424.209;  374.598;  -31.263;   56.473
424.498;  505.727;   68.732;  161.483
424.787; 1122.633; -535.267; -601.518
425.077; 3388.577;   34.735;   29.478
425.366; 4669.954; -734.262; -744.528
425.655;10236.255;  639.727;  259.493
425.945;22777.633; -313.247; -268.554
426.234;12567.502;  117.741;  300.467
426.523; 5133.157;  -86.259; -350.534
426.812; 7040.893;  107.734;  159.480
427.101;10540.818; -127.269; -323.515
427.390;13149.612;  -55.270;  -86.514
427.680; 2861.277; -624.257; -411.538
427.969;  493.462; -330.255; -301.540
428.258;  302.743; -385.257; -477.536
428.547;  527.767;  449.728;  397.490
428.836; 1174.404; -421.253; -398.543
429.125; 1672.134; -199.259;  -72.534
429.414;  768.151; -330.251; -294.548
429.703; 3182.801; -231.251; -213.548
429.992; 9588.905; -938.250; -828.549
430.281; 6233.436; -397.264; -331.524
430.570;  554.467;  -21.252;   32.454
430.859;  510.606;  279.741;  352.466
431.148;  411.054;  636.752;  631.446
431.437;  295.516;  391.748;  367.454
431.725;  148.945; -544.257; -481.536
432.014;  131.636; -845.253; -756.545
432.303;  379.880; -149.239; -105.569
432.592;  575.592; -460.263; -178.525
432.881; 1051.830; -601.248; -437.554
433.169; 6439.263; -343.255;  -61.540
433.458;12936.613;  445.765;  540.424
433.747; 5350.685; -397.261; -289.529
434.036;  847.955; -275.242; -280.564
434.324; 2088.967; -395.249; -379.551
434.613; 3750.174;   40.757;  159.437
434.902; 1216.495;  333.760;  439.433
435.190;  486.303;   75.761;  295.431
435.479;  270.981;  -52.245;   83.441
435.767;   78.889; -411.244; -427.561
436.056;  193.876; -340.242; -294.563
436.345;  368.072; -372.240; -223.568
436.633;  381.638;   60.750;  383.450
436.922;  225.299;  208.760;  414.432
437.210;  509.528; -194.236;    1.426
437.499; 1609.636; -583.235; -432.576
437.787; 1755.053; -339.236;  -10.574
438.075;  457.259;   56.761;  162.430
438.364;  619.212;  -44.238;  250.429
438.652;  365.541; -286.226; -138.592
438.941;  114.005;    3.770;  269.415
439.229;    2.314; -665.252; -466.545
439.517;   36.295; -160.234;  -85.577
439.806;   -4.368; -501.225; -290.595
440.094;  164.003;  377.766;  650.421
440.382;  143.506; -653.233; -302.580
440.670;  166.386; -361.235; -285.576
440.959;   19.099; -347.223; -170.599
441.247;   64.742; -151.229; -109.587
441.535;   92.068; -266.235;   31.423
441.823;   17.150; -497.234; -305.578
442.111;  168.246;  173.771;  327.412
442.400;  464.930; -628.245; -335.559
442.688; 1172.427; -111.234; -620.579
442.976;  855.662; -786.213; -450.617
443.264;   99.314; -324.224; -364.597
443.552;   90.617; -258.226;   51.408
443.840;  143.692;  602.765;  876.423
444.128;  112.555;  265.767;  269.420
444.416;    5.424; -694.228; -312.588
444.704;   23.254; -465.219;  -92.605
444.992;   73.195;   -0.226;  240.407
445.280;   43.281; -517.230;  -94.585
445.568;   28.891; -694.212; -396.618
445.856;  311.863; -174.221;  357.398
446.143;  674.725;  -54.220;   -7.604
446.431;  556.002;  -25.228;  625.411
446.719;  246.673;  489.783;  675.391
447.007;  181.850;  481.769;  705.416
447.295;  186.571;  597.777;  871.402
447.583;   78.664; -464.229;  -34.587
447.870;  137.810; -434.221; -202.601
448.158;  370.405; -104.230;  129.415
448.446;  284.601; -800.219; -338.604
448.733;  167.015;   13.776;  269.403
449.021;  246.590;   60.788;  341.382
449.309;  183.155; -296.210;  208.379
449.596;  207.469;  128.783;   59.392
449.884;  158.153; -571.222; -325.600
450.172;  163.408; -756.227; -406.590
450.459;  459.220;  645.786;  780.387
450.747; 2487.393; -411.218; -147.608
451.034; 7953.553;  493.772;  889.411
451.322; 6535.573; -413.214; -170.614
451.609;  543.992;  292.777;  508.403
451.897;  597.268; -550.203; -183.634
452.184; 1871.247; -622.223; -400.598
452.472; 1717.002;   97.792;  269.375
452.759;  349.802;  512.781;  864.395
453.047;  114.238; -407.212; -125.617
453.334;   58.435; -732.219; -216.606
453.621;   59.376; -438.214; -161.615
453.909;  111.285;   13.796;  384.368
454.196;   93.455; -299.199; -123.641
454.483;  193.156;  317.798;  540.364
454.771;  115.305; -215.208;  196.374
455.058;   50.783; -316.207;  102.374
455.345;  106.311;   71.807;  344.347
455.632;   89.236; -128.207;  235.373
455.919;   41.253;  -82.196;  182.354
456.207;  -69.415; -774.198; -450.642
456.494;  -15.282; -475.200;  -66.639
456.781;   11.327; -399.202; -198.635
457.068;   42.568; -253.206;  -29.628
457.355;   -3.481; -698.206; -401.629
457.642;   -9.576; -552.205; -290.630
457.929;    0.227; -778.194; -417.651
458.216;   58.563; -575.212; -354.617
458.503;  261.131; -173.193;  -19.652
458.790;  239.127; -864.208; -630.625
459.077;  267.182;  -77.202;  110.364
459.364;  827.370; -350.195; -210.649
459.651; 1714.591;  -46.206;  220.372
459.938;  818.118; -864.209; -665.623
460.225;  133.135;  132.799;  276.363
460.512;  -49.050; -836.197; -688.645
460.799;   93.092;  -32.218;  320.392
461.086;   56.473; -370.200; -251.640
461.372;   24.785; -509.198; -279.642
461.659;   85.479; -165.196;  108.354
461.946;   59.655; -445.193;  -54.651
462.233;  221.795;  842.800;  888.361
462.519;  344.792; -814.201; -464.639
462.806; 1015.226; -768.197; -497.645
463.093;  894.776; -445.191;  -66.656
463.380;  -15.508; -920.186; -824.664
463.666;   63.502; -259.197;  -18.646
463.953;  100.290; -406.195; -243.648
464.239;  206.864; -173.195;  -77.648
464.526;  376.825;  413.806;  743.350
464.813;  333.062; -565.190; -304.658
465.099;  328.606;  606.807;  607.348
465.386;  304.110;  903.807;  921.348
465.672;   21.801; -694.197; -522.645
465.959;    8.230; -598.188; -520.662
466.245;   -0.665; -468.193; -359.652
466.532;   70.537; -109.195;   63.352
466.818;   79.517; -357.186; -216.664
467.104;   -9.418; -488.182; -415.672
467.391;  -13.211; -628.189; -459.658
467.677;   32.295; -289.186;    9.335
467.964;   -1.879; -682.189; -471.660
468.250;   57.523; -331.186; -160.665
468.536;   70.940;   90.811;  180.341
468.822;  -47.440; -821.184; -574.668
469.109;  133.412;  351.827;  471.311
469.395;  185.545;  729.808;  787.346
469.681;  205.643;   46.811;  156.341
469.967; 1276.748; -699.188; -382.660
470.254; 2793.681; -494.188; -306.662
470.540; 1778.253; -601.196; -476.646
470.826;  244.643; -488.181; -397.675
471.112;  304.138;  288.816;  113.331
471.398;   80.343; -253.183;  -58.670
471.684;   34.146; -626.177; -447.680
471.970;   -6.303; -918.180; -981.675
472.256;   27.419; -521.192; -441.654
472.542;    5.948; -499.171; -434.691
472.828;    0.003; -743.182; -607.672
473.114;   25.792; -380.166; -283.700
473.400;   12.038; -504.175; -293.684
473.686;   17.023; -452.166; -400.701
473.972;   37.527; -230.174; -131.687
474.258;  -35.788; -925.173; -843.689
474.544;  218.363; -183.178;   -2.679
474.830;  338.964;  -65.175;   45.316
475.116;  523.664; -123.190; -196.658
475.401;  706.174; -558.180; -467.676
475.687;  217.023; -725.180; -718.676
475.973;   -6.589; -673.181; -770.673
476.259;  225.666;  736.825;  764.315
476.544;  380.229; -539.176; -437.682
476.830;  867.744; -398.172; -322.690
477.116;  758.203; -430.177; -336.682
477.401;  141.423;  346.820;  358.324
477.687;  -17.237; -289.175; -405.684
477.973;   44.214;   21.819;   28.326
478.258;   -7.182; -448.163; -348.706
478.544;   47.403;   21.815;   61.334
478.829;  -55.671; -818.171; -738.692
479.115;  -49.906; -749.172; -651.690
479.401;  -24.852; -444.174; -449.686
479.686;   43.122; -253.180;  -74.676
479.972;   -6.357; -886.178; -776.680
480.257;   37.968; -258.166;  -65.700
480.542;   -7.717; -614.170; -469.693
480.828;  241.986; 1288.824; 1392.317
481.113;  -36.566; -464.176; -426.683
481.399;   -4.833; -236.161; -202.711
481.684;  -61.207; -620.166; -462.700
481.969;   21.231; -158.159;  -73.713
482.255;    1.268; -439.169; -285.695
482.540;    6.118; -569.178; -441.680
482.825;    4.562; -395.187; -404.663
483.110;   95.997;  -85.169; -105.696
483.396;  195.202; -840.157; -652.718
483.681;  519.977;  543.826;  730.313
483.966;  166.775; -696.160; -700.712
484.251;   -6.899; -404.174; -310.687
484.536;  -12.722; -356.165; -378.703
484.822;   10.479; -205.173; -218.687
485.107;  -42.435; -599.152; -502.726
485.392;  125.384;  662.836;  541.296
485.677;   79.106;  354.832;  163.302
485.962;   88.725;  160.843;  270.283
486.247;   70.001;  -14.162;   -8.707
486.532;   36.869; -178.166; -325.701
486.817;  169.837;  381.839;  431.291
487.102;  121.148; -453.154; -514.722
487.387;  705.204; -637.156; -652.718
487.672; 1254.489; -154.164;  -38.705
487.957;  773.294; -394.160; -286.711
488.241;  208.057; -290.150; -314.729
488.526;  775.367; -280.152; -148.726
488.811; 1270.445; -881.177; -818.680
489.096;  937.601; -666.154; -702.723
489.381;  535.113;    3.847;  162.275
489.666;  400.967; -428.161; -510.710
489.950;  179.429;  558.846;  627.277
490.235;  -33.398; -480.151; -458.728
490.520;  -49.484; -756.161; -723.710
490.804;  -57.319; -827.156; -736.719
491.089;    9.698; -469.149; -299.732
491.374;   30.413; -132.164;  -75.704
491.658;  -13.366; -817.147; -717.735
491.943;  159.221; -657.152; -609.727
492.227;  247.019; -178.155;  -38.721
492.512;   43.049; -294.157; -341.717
492.797;  -74.333; -713.149; -716.731
493.081;  -48.663; -588.147; -598.735
493.366;  -32.407; -751.161; -635.711
493.650;  222.140;  831.859;  917.254
493.935;   31.859; -648.147; -447.734
494.219;  -44.123; -778.142; -687.743
494.503;  -33.188; -585.150; -487.730
494.788;   46.366;   46.842;   74.285
495.072;   95.958;  184.850;  434.271
495.356;  172.651; -463.148; -343.733
495.641;  473.143; -812.146; -736.736
495.925;  450.536; -976.156; -903.719
496.209;   23.997; -599.149; -451.732
496.494;  -45.347; -763.142; -544.744
496.778;   10.373; -364.154; -360.722
497.062;  -49.914; -819.156; -627.719
497.346;  -35.754; -869.160; -640.711
497.631;  149.754;  580.852;  560.266
497.915;   83.929;  -64.145;  175.261
498.199;   48.502; -341.157; -277.718
498.483;   36.115; -562.152; -508.725
498.767;  189.059;  301.850;  300.271
499.051;  184.845; -126.149; -100.732
499.335;   30.718; -693.149; -739.731
499.619;  -39.684; -381.129; -423.767
499.903;   15.168; -272.155;  -65.721
500.187;   38.056; -588.153; -316.724
500.471;   26.220; -796.152; -595.727
500.755;   92.966;   62.839;  -96.710
501.039;   16.968; -270.155; -357.721
501.323;   84.592;  -21.141;  264.254
501.607;   32.119; -447.163; -503.706
501.891;   -2.071; -607.156; -512.718
502.174;  -30.560; -726.144; -585.741
502.458;   62.099;   89.849;  370.273
502.742;   36.391; -180.138; -191.751
503.026;  122.758; -412.147; -254.734
503.310;  191.530; -437.159; -375.713
503.593;  130.485; -464.147; -325.735
503.877;  128.081; -232.133; -156.760
504.161;  174.083;    2.847;  -50.724
504.444;  129.268; -841.158; -710.716
504.728;  497.937; -487.164; -522.704
505.012;  746.581; -257.150;  -76.729
505.295;  568.342; -417.161; -212.711
505.579;  543.335; -256.156; -496.719
505.862;  794.375; -555.145; -333.738
506.146;  785.907; -681.159; -758.714
506.429;  439.007;  568.841;  461.286
506.713;   64.553; -732.151; -667.728
506.996;  330.523;   90.846;  295.278
507.280;  361.557; -633.165; -474.703
507.563;  255.541; -469.155; -261.721
507.847;  113.806; -423.153; -112.724
508.130;   96.493; -665.161; -456.711
508.413;  142.889; -758.167; -577.700
508.697;  264.639; -151.167;   12.300
508.980;  147.683; -422.153; -312.724
509.263;  -11.387; -466.155; -450.720
509.547;   44.906; -124.150;   82.271
509.830;   56.495; -172.160;  140.289
510.113;  102.160;  128.844;  298.281
510.396;   42.038; -530.152; -300.725
510.680;  121.277; -818.145; -812.738
510.963;  543.502;  184.846;  180.277
511.246;  438.489; -493.150; -357.730
511.529;  254.357; -482.145;  -83.739
511.812;  404.527; -250.134;   10.241
512.095;  276.251; -740.151; -396.728
512.378;   64.389; -317.147; -245.736
512.661;   31.823; -703.137; -623.753
512.944;   33.354; -750.142; -637.744
513.227;   61.695; -170.137; -171.752
513.510;   29.765; -479.144; -671.741
513.793;   13.021; -485.140; -435.747
514.076;  121.887;  -43.127;  -39.771
514.359;  113.223; -294.149; -135.732
514.642;   87.682; -442.142; -567.744
514.925;  778.544;  581.860;  561.253
515.208; 1046.824; -498.134; -443.758
515.491;  696.238; -276.133; -182.761
515.773;  382.894; -410.143; -337.742
516.056; 2209.105;  249.864;  409.246
516.339; 2932.633; -754.136; -652.755
516.622; 1887.061; -518.150; -488.730
516.904; 1110.026;  882.857;  975.257
517.187;  512.144; -730.138; -523.752
517.470;  401.600; -568.143; -510.743
517.752;  458.511; -624.136; -470.756
518.035;  379.757; -708.139; -725.749
518.318;  400.059; -799.136; -744.755
518.600; 2562.466; -300.132; -325.762
518.883; 3577.207;  310.858;   88.256
519.165; 1705.137; -585.138; -426.751
519.448;  396.091;  -61.132;  -19.762
519.730;  199.019; -573.126; -415.773
520.013;  300.359;  588.867;  664.240
520.295;  741.954;  -94.134;  -15.759
520.578; 1652.629; -335.131; -305.764
520.860; 1870.591; -254.132;   56.238
521.143; 1003.463; -763.135; -584.756
521.425;  472.307; -251.125; -279.775
521.707;  687.987; -622.127; -380.771
521.990; 1882.038; -199.127;  167.229
522.272; 2154.048; -116.140;   -4.748
522.554;  942.195; -237.143; -157.742
522.836;  352.077;  -24.134;   99.241
523.119;  224.607; -496.148; -189.734
523.401;  149.811; -448.130; -314.766
523.683;   89.899; -865.137; -693.753
523.965;  303.692;  408.862;  260.248
524.247;  311.978;   54.878;  170.220
524.529;  201.604; -451.134; -367.759
524.812;  383.762;   -3.130;  191.234
525.094;  897.391; -773.138; -631.751
525.376; 1433.441; -143.124;   78.223
525.658;  879.006; -441.136; -339.754
525.940;   15.850; -805.131; -671.764
526.222;   33.309; -188.136;  -88.755
526.504;  103.698; -190.131;   32.237
526.786;  154.606; -960.133; -647.760
527.068;  270.272; -124.123;  -67.778
527.349;  114.802; -865.137; -774.754
527.631;  137.791; -137.132;   22.238
527.913;  141.311; -664.127; -450.771
528.195;  191.075; -761.125; -639.774
528.477;  267.374;  -93.134;  -30.758
528.759;  144.937; -648.130; -522.766
529.040;   72.945; -569.123; -293.778
529.322;   62.803; -235.125;  -10.774
529.604;  122.740;  -47.130;   93.233
529.886;  108.169; -546.126; -302.773
530.167;  122.031;  232.870;  192.235
530.449;   39.138;    1.853;   63.265
530.731;   29.727; -572.122; -459.779
531.012;   73.123; -513.120; -216.784
531.294;   73.762; -118.116;  -43.792
531.575;  150.582;  290.875;  538.225
531.857;   63.894; -548.135; -266.757
532.138;  102.490; -113.141;   40.254
532.420;  175.515;  294.865;  403.244
532.701;  212.909; -722.133; -751.760
532.983;  316.237;  232.867;  182.239
533.264;  113.167; -243.126;  175.228
533.546;  -36.666; -491.136; -508.755
533.827;   48.180;  173.867;   -1.759
534.109;   34.819; -352.135;  -80.757
534.390;   83.245; -725.132; -582.762
534.671;  257.790; -270.135;  -82.756
534.953;  153.348; -751.123; -611.779
535.234;   16.847; -426.117; -255.789
535.515;  -67.269; -891.119; -735.785
535.796;  -20.543; -431.128; -193.770
536.078; -112.509;-1050.124; -904.777
536.359;    3.574;  -22.123;    3.221
536.640;  -10.923; -480.125; -197.774
536.921;  158.670;  225.871;  143.232
537.202;  395.213;  -87.138;  -16.751
537.483;  467.928;  251.869;  377.236
537.764;  188.006;   17.870;   98.235
538.045;  -42.152; -543.134; -371.758
538.326;  -44.153; -596.129; -447.768
538.607;   26.138; -686.127; -476.771
538.888;  183.464;   98.879;    5.218
539.169;  192.284; -704.122; -535.781
539.450;  347.369;  236.871;   16.233
539.731;  209.718; -361.121; -182.783
540.012;  124.923;  199.880;  412.216
540.293;   88.860;   82.876;  158.224
540.574;   -6.492; -895.113; -717.796
540.855;  448.642;  435.879;  377.218
541.136;  539.081;   47.878;  139.220
541.416;  278.363; -161.130; -220.766
541.697;  203.674; -274.131; -170.763
541.978; 1102.842; -270.135; -315.757
542.259; 1418.963; -211.127; -236.771
542.539;  673.531; -191.116; -186.790
542.820;  200.932;  461.875;  480.225
543.101;  141.478;  -52.145;  -77.738
543.381;   29.387; -638.127; -591.771
543.662;  269.460;  159.873; -254.771
543.942;  630.458; -751.127; -830.770
544.223; 1113.708;  193.878;  161.219
544.504;  711.441; -275.124; -182.777
544.784;  609.069; -592.126; -408.773
545.065; 1723.160;  104.884; -254.791
545.345; 2046.107;  227.881;   14.215
545.626; 1343.682;  -14.113; -108.796
545.906;  934.831;   77.869;   98.235
546.186;  375.498;   92.874;  -95.773
546.467;  203.993;   99.877;  -95.778
546.747;  336.481;  264.884;  327.210
547.027;  396.014;   91.876;  111.223
547.308;  343.558; -376.127; -530.770
547.588;  417.197;  299.871;  371.232
547.868;  209.157;  458.870;  588.235
548.149;  224.542;  609.885;  593.207
548.429;  140.786; -347.127; -299.771
548.709;  211.498; -645.120; -461.784
548.989;  509.641;   84.882;   88.213
549.269; 2215.539;   10.868;  139.239
549.550; 5149.547;  215.877;  117.222
549.830; 4619.500; -758.111; -556.799
550.110;  920.632; -468.110; -320.801
550.390;  842.728; -128.122;  -56.779
550.670; 1185.228; -868.114; -783.795
550.950;  836.116; -509.121; -471.782
551.230;  201.712;  549.879;  460.218
551.510;   -1.660; -381.121; -326.782
551.790;   42.815; -173.109; -127.803
552.070;  271.193;  940.877; 1181.223
552.350;  453.786; -492.119; -377.786
552.630;  631.860;   -2.121;   77.219
552.909;  391.335;  181.884;   73.209
553.189;  224.171;  -49.132;   33.237
553.469;  195.485; -703.119; -514.786
553.749;  212.089; -469.127; -357.772
554.029;  180.051;   33.883;  -24.790
554.308;  151.246; -154.115;  -37.794
554.588;   51.881; -196.128; -204.770
554.868;   91.467; -366.121;  -47.782
555.147;  156.693; -114.115;  -46.793
555.427;  639.713; -260.116; -250.792
555.707; 4119.891; -284.115; -200.793
555.986; 5042.553; -719.111; -538.800
556.266; 2623.305;   23.884;   72.210
556.546;  120.340; -888.121; -675.782
556.825;  275.126; -657.114; -556.794
557.105; 1878.029; -125.128;   17.230
557.384; 2244.834;  122.884;  187.209
557.664;  875.887; -717.116; -508.792
557.943;  134.466; -557.121; -411.782
558.222;  192.394; -345.118; -344.788
558.502;  283.595; -116.115;  -76.793
558.781;  505.815;  194.885;  499.208
559.061;  448.619; -232.118; -227.788
559.340;  323.149;  302.883;  353.211
559.619;  761.004;   93.884;  148.210
559.899; 1098.701; -239.117; -266.789
560.178; 1018.919; -778.115; -593.793
560.457; 3330.727; -623.117; -562.790
560.736; 4646.204; -472.111; -482.800
561.015; 3087.102; -500.128; -502.769
561.295;  417.335;  180.893;  215.193
561.574;  349.042;  119.885;  116.207
561.853;  504.244;  274.891;  303.197
562.132;  532.247;  -45.114;  182.206
562.411;  460.811;  396.879;  553.219
562.690;  156.515; -592.115; -458.792
562.969;  145.089;  472.888;  630.203
563.248;  521.133; 2966.878; 2487.219
563.527;  299.154; -290.111; -408.800
563.806;  398.436; -650.127; -521.771
564.085;  432.825; -297.105; -206.810
564.364;  256.229; -594.117; -405.790
564.643;  532.561; -276.121; -223.781
564.922; 2020.263;  221.890;  397.198
565.201; 2025.042; -640.109; -700.803
565.479;  866.939; -297.115; -219.792
565.758;  365.954; -810.128; -712.770
566.037;  508.793; -155.109; -100.803
566.316;  254.559; -286.116;  -28.791
566.595;   44.792;  -17.115;  -12.793
566.873;   89.606; -166.111;  -79.801
567.152;  -49.311; -490.113; -590.797
567.431;   15.480; -113.116;    6.210
567.709;    7.460; -344.107; -212.807
567.988;  291.600; -810.114; -769.794
568.266;  558.241; -160.115;  -68.793
568.545;  408.572; -644.100; -514.819
568.824;  622.538;  160.885;  356.208
569.102;  590.250; -351.114; -235.794
569.381;  240.587; -492.116; -407.792
569.659;  -53.665; -553.113; -553.796
569.938;   43.882; -743.122; -465.780
570.216;  119.621; -225.109; -225.804
570.494;  -26.697; -632.114; -572.795
570.773;   47.740;  202.879;  114.218
571.051;   25.021; -373.123; -357.778
571.330;   65.983; -221.113; -174.796
571.608;   45.840; -181.098; -173.823
571.886;  -55.302; -671.111; -581.799
572.164;  -57.233; -739.121; -621.782
572.443;  -38.471; -562.105; -512.811
572.721;  -24.022; -399.117; -289.790
572.999;  -11.079; -280.117; -168.788
573.277;   98.347;  379.894;  620.191
573.555;  312.349;   94.894;   37.190
573.834; 1455.771;  -86.117; -114.788
574.112; 1672.963;  880.893;  811.193
574.390;  534.505; -143.111;  -96.801
574.668;    3.040;  -91.112;  -61.797
574.946;   -8.300; -165.106; -187.810
575.224;   -3.633;   71.891;  -16.803
575.502;  -16.893; -200.116; -204.791
575.780;  -81.284; -767.112; -829.798
576.058;  225.454; 1589.889; 1004.200
576.336;  -10.215; -210.110; -129.801
576.614;  -42.484; -511.112; -340.798
576.891;   64.521; -711.115; -823.794
577.169;  536.754; -158.108; -285.805
577.447;  615.012;  169.893;  202.193
577.725;  277.645;  629.888;  854.201
578.003;   21.268;  -71.112; -371.798
578.280;   95.513; -208.104; -242.812
578.558;   71.520; -450.115; -422.793
578.836;  140.103; -210.114; -145.795
579.114;   71.864; -630.112; -670.797
579.391;   77.873;   -6.117;  -18.789
579.669;  -86.053; -595.114; -704.794
579.947;  185.784; -326.107; -127.806
580.224;  342.709; -692.107; -524.806
580.502;  340.238;  127.893;   76.193
580.779;   34.028;  -42.117;   75.210
581.057;  -64.854; -584.109; -470.804
581.334;  -98.472; -726.102; -695.815
581.612;   46.350;   54.895;  511.190
581.889;  -15.834;  -83.101; -129.818
582.167;  -24.545; -298.099; -190.821
582.444;  -88.040; -845.102; -814.817
582.721;  113.086;  657.899;  715.183
582.999;   44.552; -326.100; -167.821
583.276;  590.250; -812.123; -713.779
583.553;  767.981; -364.102; -294.816
583.831;  250.009; -607.104; -631.812
584.108;   66.227;  349.892;  174.195
584.385;    6.252; -122.102;  -98.815
584.662;  -55.444; -651.111; -828.801
584.940;   27.655;  204.889;  204.199
585.217;  -17.740;  -73.113; -303.796
585.494;   35.189;   71.890;  118.198
585.771;  213.722; -250.109; -354.804
586.048;  522.559; -196.113;  -76.796
586.325;  328.609; -721.110; -773.801
586.602;  108.538;  230.896;  213.188
586.879;   -2.626; -499.100; -580.820
587.156;   66.701; -156.105; -331.810
587.433;  -34.717; -701.102; -667.817
587.710;   71.967;  152.888;  234.202
587.987;  292.806; -264.105; -236.811
588.264;  808.143;  315.888;  387.202
588.541; 1387.141;  -61.104;   26.187
588.818; 2745.299;   72.892;  171.196
589.095; 2366.711; -163.104; -174.812
589.371;  385.845; -459.109; -414.804
589.648;   16.338; -581.107; -437.807
589.925;   37.329; -517.114; -621.795
590.202;   19.991; -741.112; -607.798
590.478;   90.233; -166.105;  -73.811
590.755;  286.780; -241.108; -132.806
591.032; 2600.111; -741.110; -699.802
591.308; 3622.605; -732.094; -790.831
591.585; 1878.785; -573.110; -560.802
591.862;  164.285;-1056.102; -950.817
592.138;   70.978; -475.108; -474.805
592.415;  150.439; -486.104; -495.813
592.691; 1493.637;  460.896;  518.188
592.968; 1920.417; -208.098; -123.824
593.244;  927.006; -695.116; -595.790
593.521;   75.610; -105.102;  -42.817
593.797;  -18.446; -810.122; -720.780
594.074;  348.179; -611.096; -588.826
594.350;  692.990;  828.905;  729.172
594.626;  322.406; -303.111; -283.801
594.903;  110.211; -643.101; -645.817
595.179;  214.418;  243.896;  418.187
595.455;   24.289; -136.107; -150.807
595.731;    1.344;  -19.103;  -38.814
596.008;  -30.699; -464.111; -434.800
596.284;   34.476; -187.100; -242.820
596.560;   56.386; -501.093; -493.833
596.836;  199.203; -173.105;  -70.810
597.112;  366.228; -582.108; -437.805
597.388;  292.402;  -49.097;  -48.826
597.665;  116.662;  437.887;  530.203
597.941;  -44.910; -572.089; -658.839
598.217;   21.414; -323.110; -293.802
598.493;  274.173;   61.891; -204.804
598.769;  541.721; -175.100;  -50.819
599.045;  332.631; -490.108; -562.806
599.321;   57.325; -193.100; -261.820
599.597;  156.123; -355.109; -476.804
599.872;  489.016;  409.896;  429.187
600.148;  376.229;  -61.097; -172.826
600.424;  305.011;   91.893;  202.193
600.700;  239.088; -170.107; -280.807
600.976;  122.848; -442.097; -464.825
601.252;  255.919; -226.109; -272.803
601.527;  220.216; -833.104; -840.813
601.803;  149.709; -453.105; -404.812
602.079;  183.696; -124.100; -118.819
602.354;  587.546; -620.092; -531.835
602.630;  839.185; -140.113; -482.796
602.906; 2441.591; -910.101; -863.818
603.181; 7047.760; -627.119; -534.786
603.457; 5980.926;   98.903; -278.826
603.733;  876.344; -605.120; -626.783
604.008;  986.150; -245.106; -164.810
604.284; 3182.212; -636.101; -580.817
604.559; 2787.420;   -3.112;  -42.799
604.835;  513.578; -163.105; -225.810
605.110;  423.655; -732.099; -892.821
605.385;  728.489;  224.907;  267.167
605.661;  680.568; -625.095; -729.829
605.936; 1261.432; -664.108; -737.806
606.211; 1047.451;  -17.103; -170.815
606.487;  217.699; -329.114; -376.794
606.762;   34.986; -791.119; -745.786
607.037;  -12.172; -501.105; -433.810
607.313;  -47.539; -589.096; -574.828
607.588;   -8.000; -375.106; -137.810
607.863;   33.715;  -28.101; -143.818
608.138;  202.263;  513.890;  516.198
608.413;   45.084; -576.099; -592.822
608.688;   57.178; -203.108; -267.805
608.964;  212.794; -509.106; -218.809
609.239;  264.501; -107.105; -212.810
609.514;  253.308;  281.895;  240.188
609.789;  660.838; -187.104; -716.812
610.064;  894.010; -435.096; -609.827
610.339;  939.295; -855.109; -799.804
610.614; 1262.551; -131.100; -315.820
610.889;  710.234;  215.895;  107.188
611.163;   46.484; -407.104; -591.812
611.438;   99.175;   81.886; -167.794
611.713;   12.787; -467.101; -499.817
611.988;   70.289; -144.101; -328.818
612.263;   -3.422; -771.102; -717.815
612.538;  240.884;  385.887;  251.204
612.812;  198.802; -832.100; -911.820
613.087;  143.115; -358.098; -338.823
613.362;  -48.211; -497.107; -557.807
613.637;   39.972;  261.897;  138.186
613.911;   -5.828; -256.092; -345.835
614.186;  145.162; -249.107; -292.807
614.460;  733.490; -842.081; -758.854
614.735;  853.139;  -55.087;  -17.843
615.010;  171.054;   43.912;  -82.841
615.284;  255.552;  360.892;  246.195
615.559;  398.020; -792.092; -955.835
615.833;  306.982;  -76.099;  -87.822
616.108;    4.557; -225.090; -390.837
616.382;  145.440;  274.913;  402.156
616.656;  162.908; -241.090; -232.837
616.931;  508.658; -785.099; -700.822
617.205; 1125.067; -973.104; -979.813
617.480; 1022.030;  -91.125;    6.225
617.754;  179.152; -396.125; -128.774
618.028;   19.523; -369.129; -382.768
618.302;   66.376;   73.892;  -25.805
618.577;  -43.127; -371.103; -518.815
618.851;  -61.434; -399.109; -600.803
619.125;  -38.296; -335.134; -378.759
619.399;  -30.983; -244.104; -374.813
619.673;  -52.837; -330.115; -515.792
619.947;  -46.622; -333.114; -448.795
620.222;   -4.168; -198.110; -204.801
620.496;   -1.558;  -47.121;  -96.782
620.770;   19.783; -187.122;  -93.781
621.044;  216.976;  323.895;  346.190
621.318;  754.720; -653.120; -614.783
621.592;  704.642; -430.121; -409.783
621.866;  383.071; -476.112; -572.799
622.140;   47.607; -207.116; -356.791
622.413;   71.475;  138.889;  112.200
622.687;  -35.213; -746.101; -492.817
622.961;   16.751; -130.108; -143.805
623.235;  -62.874; -633.111; -661.800
623.509; -100.367; -816.105; -848.811
623.783;   15.160;  -12.107;   48.193
624.056;  -19.004; -254.120; -280.783
624.330;   50.040;   63.888;   -3.797
624.604;   49.829; -271.116; -355.790
624.877;   73.537;  180.890;   26.198
625.151;   47.023; -249.114; -238.794
625.425;  -36.631; -150.103; -283.814
625.698;  -55.970; -367.119; -374.785
625.972;  -98.336; -799.110; -765.802
626.245;   67.531;  685.884;  484.210
626.519;  -52.150; -426.120; -340.784
626.792;  -27.037; -192.107; -380.807
627.066;  -86.149; -485.122; -662.779
627.339;  -87.265; -736.110; -663.802
627.613;   37.073;  351.880;  148.216
627.886;   55.166;  187.891; -612.803
628.160;   -4.781;  312.880; -161.783
628.433;  -84.867; -695.125; -703.775
628.706;  -75.700; -517.120; -615.784
628.979;   27.314;  296.876;  117.223
629.253;  -75.415; -785.119; -833.786
629.526;  389.492; -334.126; -253.772
629.799;  361.196; -641.123; -479.778
630.072;  175.550; -497.128; -516.769
630.346;  -69.919;-1115.116;-1080.790
630.619;  469.739; -467.107; -545.808
630.892;  650.002;  709.889;  593.200
631.165;  357.167;  790.896;  679.187
631.438;  -71.382;-1092.112;-1055.798
631.711;   55.824;  453.877;  257.221
631.984;  -60.149; -523.117; -624.789
632.257;  -58.977; -636.117; -681.789
632.530;  -35.045; -412.119; -433.785
632.803;   21.796; -109.115;    7.207
633.076;  -66.732; -360.123; -422.777
633.349;    8.804;  173.872;  121.231
633.622;  -39.996; -187.119; -240.785
633.895; -110.330; -903.120; -823.783
634.167;  -66.956; -496.126; -525.773
634.440;  -14.488;  -19.116; -137.792
634.713;   -5.741;  -22.119; -120.786
634.986;   80.868;  593.871;  453.233
635.258;  -73.981; -507.115; -597.793
635.531;  108.494;  742.882; -343.788
635.804;  -23.825; -303.117; -318.789
636.077;  -80.992; -830.116; -852.791
636.349;    5.417; -586.115; -474.793
636.622;  405.917; 1695.874; 1392.228
636.894;  264.875; -474.120; -909.784
637.167;  178.636; -836.127; -789.771
637.439;   36.282; -278.128; -213.770
637.712;  -51.007; -312.126; -293.772
637.984;  -88.591; -635.116; -707.791
638.257;  391.843;  515.877;  488.222
638.529;  582.534; -881.125; -924.776
638.802;  265.074; -508.128; -449.769
639.074; -112.492; -927.122; -952.781
639.346; -128.130; -942.135; -930.757
639.619;    2.731;  -79.142; -319.744
639.891;   -0.574;  -83.122; -168.779
640.163;  -74.372; -689.122; -756.780
640.435;   38.030;  273.878;  103.220
640.708;    9.782;  -72.122; -132.780
640.980;  -22.191; -366.122; -362.781
641.252;  190.911;  -25.121;  -71.781
641.524; 1807.937;  580.879;  573.219
641.796; 1814.464;-1094.121; -907.782
642.068;  338.166; -191.121; -300.782
642.340;  -36.932; -486.121; -566.783
642.613;   48.345;  294.880;  323.217
642.885;  -92.779; -787.120; -878.783
643.157;  -40.652; -810.120; -658.784
643.428;   70.650;  170.880;  218.216
643.700;  -74.898; -498.120; -425.784
643.972;  -20.996;  -16.119; -133.785
644.244;  -95.494; -474.119; -559.785
644.516;  -51.143; -250.119; -114.786
644.788;   58.559;  662.881;  548.214
645.060;  -38.914;  -12.119; -124.786
645.332;  -98.787; -525.118; -535.787
645.603;   40.815;  479.882;  342.213
645.875;  -68.133; -334.118; -369.787
646.147;  163.893; 1487.882; 1242.212
646.418;  -52.430; -931.117; -918.788
646.690;  161.597; -714.117; -715.789
646.962;   45.624; -413.117; -451.789
647.233;   -3.024;   15.883;   11.211
647.505; -102.398; -595.117; -475.790
647.776;   29.404;  328.884;  229.210
648.048;   -9.294; -248.116; -418.790
648.320;  -72.017; -752.116; -679.791
648.591; -144.165;-1055.116; -958.791
648.862;  -90.788; -505.116; -577.792
649.134;   16.888;  115.885;  198.208
649.405;  -45.185; -661.115; -618.792
649.677;  -52.108; -475.115; -598.793
649.948;   -1.531; -181.115; -296.793
650.219;    4.721;  -37.115; -147.793
650.491;  -84.478; -431.114; -520.794
650.762; -116.926; -705.114; -731.794
651.033;  -93.449; -437.114; -424.795
651.304;  -83.422; -743.114; -728.795
651.576;  -65.520; -680.114; -645.795
651.847;  -43.043; -250.113; -140.796
652.118;  -19.892;  -32.113; -189.796
652.389;  -97.565; -639.113; -722.796
652.660;  -33.938; -147.113;  -89.797
652.931; -142.286; -897.112; -871.797
653.202;  -80.109; -382.112; -541.798
653.473;  -67.407; -633.112; -533.798
653.744;  169.869; -595.112; -590.798
654.015;  137.771; -356.112; -303.799
654.286;  -64.177; -642.111; -663.799
654.557;  -51.675; -586.111; -521.799
654.828; -151.448;-1114.111;-1088.800
655.099;  -68.097; -404.111; -291.800
655.370;  -92.620; -427.111; -543.801
655.641; -122.368; -656.110; -714.801
655.911; -116.666; -618.110; -638.801
656.182;   37.411;  437.890;  387.198
656.453;   78.888;  830.890;  746.198
656.724;  -76.936; -466.110; -426.802
656.994;  -71.909; -553.109; -568.803
657.265; -103.032; -862.109; -873.803
657.536;  -79.280; -500.109; -377.804
657.806; -113.978; -561.109; -593.804
658.077; -139.901; -866.109; -950.804
658.347;  -85.775; -523.108; -598.805
658.618; -109.273; -646.108; -694.805
658.888;  -25.821;  -41.108;  112.195
659.159;  -72.119; -432.108; -548.806
659.429;   -7.692; -292.108; -349.806
659.700;   25.884; -435.107; -390.807
659.970;   -5.039; -370.107; -359.807
660.241;   22.363; -754.107; -921.807
660.511;  529.340; -147.107; -174.808
660.781;  100.167; -793.106; -748.808
661.052;  -55.531; -222.106; -381.808
661.322;  -15.155;   21.894;   -9.809
661.592;    6.422;  257.894;  148.191
661.862;  -61.726; -369.106; -382.810
662.133;  -95.324; -551.105; -502.810
662.403; -120.397; -770.105; -676.810
662.673;  -59.320; -256.105; -213.811
662.943; -106.669; -612.105; -551.811
663.213;  -12.517;  -85.105;  -81.811
663.483;  -77.390; -593.104; -568.812
663.753;  -52.263; -194.104; -152.812
664.023;  -16.711;   68.896;  -32.813
664.293;  -60.535; -319.104; -126.813
664.563; -107.583; -694.104; -648.813
664.833; -115.306; -743.103; -608.814
665.103; -105.529; -730.103; -793.814
665.373; -119.152; -766.103; -806.814
665.643;  -83.825; -863.103; -918.815
665.913;   33.551; -534.103; -714.815
666.182;  147.578; -685.102; -719.816
666.452;  279.430;  -22.102;  -89.816
666.722;   -9.368; -724.102; -784.816
666.992; -122.416; -948.102; -921.817
667.261;  -91.864; -824.102; -808.817
667.531;  204.437;  134.899;   45.183
667.801;  525.389; -440.101; -412.818
668.070;  236.966;  714.899;  697.182
668.340;  -91.982; -883.101; -840.819
668.609;   84.295;  588.900;  301.181
668.879;  -83.404; -490.100; -558.819
669.149;  -74.277; -539.100; -516.820
669.418; -106.925; -698.100; -726.820
669.688;  -29.898; -482.100; -666.820
669.957;   82.854; -423.099; -546.821
670.226;  -18.544; -268.099; -331.821
670.496;  -95.618; -431.099; -635.822
670.765;  -66.541; -418.099; -501.822
671.034; -135.039; -872.099; -828.822
671.304;  -20.412;   55.902; -111.823
671.573; -156.760;-1085.098; -957.823
671.842;   85.491; -380.098; -294.823
672.112;   30.193; -692.098; -586.824
672.381;    7.770; -239.098; -214.824
672.650; -131.253;-1005.097;-1021.825
672.919;  -88.926; -631.097; -507.825
673.188;  -84.124; -681.097; -878.825
673.457; -135.273;-1101.097;-1143.826
673.726;  -78.571; -579.096; -646.826
673.995;  -26.794; -533.096; -479.826
674.265;   -6.292; -263.096; -333.827
674.534;   11.335; -183.096; -235.827
674.802;   13.812; -618.096; -703.828
675.071; 1041.188; -886.095; -801.828
675.340; 4109.765; -464.095; -339.828
675.609; 1387.442;  103.905;   82.171
675.878;   82.119; -949.095; -893.829
676.147;   46.171;  -26.095;   -8.829
676.416;  102.372; -210.094; -294.830
676.685;  764.499; 1000.906; -622.830
676.953;  119.801; -603.094; -452.831
677.222;  -33.497; -193.094; -273.831
677.491;  -37.170;  -24.094; -127.831
677.759;   -9.768;   11.907;  172.168
678.028;  -20.392; -279.093; -222.832
678.297;    8.435;   71.907;  197.168
678.565; -135.538; -898.093; -944.833
678.834;  -69.511; -311.093; -268.833
679.102;  -79.234; -411.092; -391.834
679.371; -139.207; -898.092; -727.834
679.639; -134.731; -797.092; -786.834
679.908; -112.754; -794.092; -724.835
680.176; -162.002; -895.091; -941.835
680.445;  -72.925; -346.091; -352.835
680.713;  -13.623;  -58.091;  -23.836
680.982;  -92.597; -523.091; -525.836
681.250; -100.945; -578.091; -507.837
681.518;  -99.243; -534.090; -751.837
681.787;  -23.791; -204.090; -167.837
682.055;  -59.314; -490.090; -422.838
682.323; -133.287; -993.090; -992.838
682.591;   39.614; -216.090; -538.838
682.859;   89.066;    9.911;  -35.839
683.128;   21.918;  232.911;  497.161
683.396; -168.530;-1102.089;-1122.840
683.664;  -39.378; -241.089;   21.160
683.932;    0.449;  144.911;  -76.840
684.200;  -82.500; -576.088; -320.841
684.468;  -18.373;  -73.088; -124.841
684.736;  -27.971; -214.088; -175.841
685.004; -120.769;-1024.088; -982.842
685.272;  -28.867; -880.088; -774.842
685.540;  -68.016; -499.087; -557.843
685.808;  -78.364; -651.087; -682.843
686.076;  -95.087; -894.087; -969.843
686.343;  -62.735; -601.087; -815.844
686.611;   37.192; -195.087; -224.844
686.879;  487.969; -530.086; -553.844
687.147; 3379.795; -483.086; -480.845
687.414;  972.447;  -12.086; -169.845
687.682;   -5.176; -658.086; -757.846
687.950;  307.001;  259.915;  263.154
688.217;   22.678; -792.085; -760.846
688.485;    3.480; -632.085; -636.847
688.753;  569.756;  -11.085; -102.847
689.020;  180.083; -820.085; -851.847
689.288;  -90.315; -853.084; -787.848
689.555;  -23.713; -195.084; -148.848
689.823;  -35.786; -241.084; -345.849
690.090;  -73.935; -546.084; -651.849
690.358; -145.258; -877.084; -897.849
690.625;   20.269;  120.917;   45.150
690.892;  -92.129; -403.083; -369.850
691.160;  -25.752;   72.917;  -35.850
691.427;   15.300;  141.917;  130.149
691.694; -131.299; -855.083; -929.851
691.962; -138.472;-1177.082;-1060.852
692.229;   19.280;  127.918;   56.148
692.496;   75.557;  130.918;  -49.852
692.763;   12.759; -164.082; -201.853
693.031;  -54.515; -739.082; -716.853
693.298;  -42.188; -509.081; -368.853
693.565;  325.214; -155.081; -163.854
693.832; 1329.766;   -5.081;   -9.854
694.099;  157.793; -643.081; -642.855
694.366;  -56.180; -882.081; -896.855
694.633;  -41.679; -920.080; -633.855
694.900;  744.073; 4367.920; -114.856
695.167;  436.275; -214.080; -380.856
695.434;  103.002; -646.080; -623.856
695.701;  190.704;  121.921;  -61.857
695.968;  479.856; -365.079; -361.857
696.234;  998.682; -415.079; -646.858
696.501;10085.284; -776.079; -614.858
696.768; 5159.236; -554.079; -617.858
697.035;  310.538; -632.078; -667.859
697.302;   32.815; -448.078; -552.859
697.568;   14.366; -458.078; -497.859
697.835;  -50.282; -683.078; -624.860
698.102;  -26.930; -498.078; -407.860
698.368;   68.697;  384.923;  396.139
698.635;  -23.926;  -47.077; -424.861
698.901;  -22.449; -240.077; -348.861
699.168;   71.752; -534.077; -456.862
699.435;   90.354;  -72.077;  -13.862
699.701; -115.669; -868.076; -764.862
699.968;   17.633;  144.924; -441.863
700.234; -104.990; -783.076; -822.863
700.500;  -62.788; -448.076; -539.864
700.767;   -3.662;   -1.075;   26.136
701.033; -121.635;-1015.075; -963.864
701.299;  -71.258; -450.075; -483.865
701.566;  123.144;  950.925;  763.135
701.832;   26.346;  -31.075;  -76.865
702.098;  -91.953;-1054.074;-1034.866
702.365;  -79.051;-1098.074;-1030.866
702.631;  -22.849;-1038.074;-1063.867
702.897; 1372.878; -765.074; -676.867
703.163; 2298.055;  348.926;  254.133
703.429;  158.407; -256.073; -273.868
703.695;  -21.592; -796.073; -792.868
703.961;   16.285; -214.073; -210.868
704.227;  -43.838; -630.073; -725.869
704.493;  123.489;  613.927;  510.131
704.759;  -21.734; -565.072; -540.870
705.025;   38.443; -203.072; -194.870
705.291;  -12.481; -666.072; -562.870
705.557;  196.821;  719.928;   34.129
705.823;   15.173; -742.072; -694.871
706.089;  127.450; -307.071; -326.871
706.355;  342.777; -315.071; -244.872
706.620; 5242.053; -776.071; -729.872
706.886; 7569.255; -309.071; -362.873
707.152;  733.182; -818.070; -973.873
707.418;  -11.891;-1153.070;-1186.873
707.683;    2.536; -550.070; -530.874
707.949;  -39.237; -547.070; -578.874
708.215;   -7.636; -129.070; -207.874
708.480;  -16.734; -520.069; -420.875
708.746;   94.493;   68.931;   28.125
709.011;  -64.380; -578.069; -612.876
709.277;  -67.878; -538.069; -543.876
709.542;  -47.152; -428.069; -387.876
709.808;    5.550;  -59.068;   89.123
710.073;  -90.773; -577.068; -695.877
710.339;  -34.146; -242.068; -228.877
710.604;   66.056; -780.068; -845.878
710.869;  334.908; -277.068; -366.878
711.135;  -76.541; -715.067; -628.879
711.400;  -95.864; -507.067; -608.879
711.665;  -69.687; -404.067; -479.879
711.931;  -88.285; -661.067; -677.880
712.196; -114.208; -876.067; -954.880
712.461;  123.869; -402.066; -490.880
712.726;  155.495; -727.066; -771.881
712.991;  -84.803; -647.066; -664.881
713.256;  -46.101; -350.066; -332.882
713.521;  -59.524; -417.065; -381.882
713.787;  -67.122; -454.065; -472.882
714.052;  -49.096; -214.065; -400.883
714.317;  -94.669;-1045.065; -981.883
714.581;  972.533; -374.065; -268.883
714.846; 1346.260; -822.064; -888.884
715.111;  141.012;  261.936;  257.116
715.376;  -22.786;  -86.064; -223.885
715.641;  -13.260; -365.064; -367.885
715.906;  308.267;   15.936; -551.885
716.171;  148.219;  221.937;  209.114
716.436;   40.871;  -78.063; -104.886
716.700;  -93.852; -818.063; -692.886
716.965; -124.125; -794.063; -807.887
717.230;  -77.499; -339.063; -392.887
717.494;  -32.022;  -40.062; -134.888
717.759;  -94.220; -784.062; -640.888
718.024;    7.132;  269.938;  250.112
718.288;   91.034;  685.938;  395.111
718.553; -139.990; -803.062; -977.889
718.817; -124.963; -883.061; -899.889
719.082;  -17.686; -115.061; -125.890
719.346; -129.984;-1000.061; -947.890
719.611;  -36.482; -300.061; -255.891
719.875;  -96.855; -568.060; -537.891
720.140;  -72.154; -453.060; -603.891
720.404;   47.698; -136.060; -249.892
720.668;  867.650; -475.060; -411.892
720.933;  358.277;  146.940;  137.108
721.197;  -95.221; -667.059; -600.893
721.461; -135.819; -851.059; -826.893
721.725;   -5.293;  -21.059; -250.894
721.990;  -51.991; -284.059; -204.894
722.254;  -14.614;  -26.059; -108.894
722.518;  -68.862; -286.058; -442.895
722.782;  -99.035; -743.058; -594.895
723.046;  127.141;  614.942;  570.105
723.310;   15.293;  374.942;  210.104
723.574;  -84.180; -654.058; -614.896
723.838; -104.103; -576.057; -642.897
724.102;  -37.526; -226.057; -239.897
724.366; -133.249;-1032.057; -978.897
724.630;  -99.173; -749.057; -571.898
724.894;  -82.296; -722.057; -514.898
725.158;    6.981;   38.944; -295.898
725.422;  -53.092; -394.056; -327.899
725.685;  -78.790; -441.056; -349.899
725.949;  -66.888; -566.056; -519.900
726.213;  -76.587; -732.056; -811.900
726.477;  182.190;-1020.055; -933.900
726.740;  145.017; -274.055; -104.901
727.004;  321.919; -384.055; -510.901
727.268; 3228.471; -442.055; -400.901
727.531;  898.922; -961.055; -775.902
727.795;  -53.676; -713.054; -673.902
728.059;  -64.949; -552.054; -557.903
728.322;  -57.572; -841.054; -669.903
728.586;   37.305; -692.054; -701.903
728.849;  -70.143; -695.053; -756.904
729.112; -101.992; -812.053; -912.904
729.376; -121.740; -959.053; -905.904
729.639;  -82.838; -536.053; -536.905
729.903; -103.261; -733.053; -699.905
730.166;  -45.959; -437.052; -399.906
730.429;  -31.058; -317.052; -468.906
730.693;  -69.156; -355.052; -894.906
730.956;  212.496;  810.948;  651.093
731.219;  711.848; -310.052; -103.907
731.482;  129.375;-1003.051; -894.907
731.745;  103.802; -794.051; -935.908
732.009;   25.628;  -30.051;   50.092
732.272;  -90.095; -904.051; -771.909
732.535;  -43.168; -300.051; -310.909
732.798; -150.166;-1083.050;-1166.909
733.061;  -51.089; -430.050; -456.910
733.324;    7.438;   31.950; -180.910
733.587;   60.439;  290.950;  365.090
733.850;  -74.434; -973.049;-1050.911
734.113;   34.093;   33.951;   32.089
734.376;   13.370; -328.049; -447.912
734.639;  201.897; 1188.951; 1011.088
734.901;   74.673; -180.049; -402.912
735.164;  531.500; -883.048; -837.913
735.427; 1355.802; -166.048; -355.913
735.690;  140.779; -205.048; -234.913
735.952;  -29.769; -923.048; -925.914
736.215;   -4.267;-1113.048;-1009.914
736.478;   32.859; -771.047; -774.915
736.740;  218.211;   33.953;  129.085
737.003;  696.263; -658.047; -672.915
737.266; 4184.090;  -94.047;   46.084
737.528;  451.517; -682.047; -660.916
737.791;  313.244; -316.046; -327.916
738.053;  781.395;  465.954;  649.083
738.316;10458.147; -162.046; -136.917
738.578; 7502.274; -770.046; -736.918
738.841;  454.826; -382.046; -446.918
739.103;  173.828; -875.045; -777.918
739.365;  519.029;   79.955;  -69.919
739.628;    6.931; -884.045; -805.919
739.890;  -19.117; -758.045; -710.919
740.152;  -37.890; -692.044; -754.920
740.414;  -10.488; -408.044; -359.920
740.677;  -45.986; -785.044; -634.921
740.939;  -50.835; -587.044; -487.921
741.201;  271.642; -432.044; -572.921
741.463;   30.194; -689.043; -745.922
741.725;   23.671;  -21.043; -199.922
741.987;   55.573;  220.957;  116.078
742.249;    7.325; -751.043; -859.923
742.511;  235.226; -703.043; -794.923
742.773;   18.728; -546.042; -546.924
743.035;  134.030;  796.958;  533.076
743.297;  -30.543; -963.042;-1013.924
743.559;  760.834; -278.042; -262.925
743.821;   66.760; -735.042; -744.925
744.083;   17.737;  -44.041; -149.925
744.345;  -84.411; -869.041; -892.926
744.607;   33.891;   75.959;  122.074
744.868;  -49.007; -490.041; -554.927
745.130; -104.430; -994.041;-1008.927
745.392;   35.771;   -1.040;  -44.927
745.653;   -6.077; -411.040; -378.928
745.915;  152.950;  896.960;  631.072
746.177;   48.052;   35.960;  -43.928
746.438;    4.454; -428.040; -543.929
746.700;  -41.669; -947.039; -988.929
746.961;    7.107; -659.039; -740.930
747.223;  122.209; -190.039;  -74.930
747.484;  100.586; -391.039; -471.930
747.746;  156.163;  -23.038; -106.931
748.007;  113.715; -647.038; -689.931
748.269;  302.791; -468.038; -440.931
748.530;  504.543; -852.038; -638.932
748.791;  277.295; -354.038; -420.932
749.053;  459.622;  286.963;  163.067
749.314;  476.999; -236.037; -169.933
749.575;  533.876; -945.037; -905.933
749.836;  858.577; -217.037;   86.066
750.098; 2431.954;  -60.037;  -21.934
750.359;37004.281;  414.964;  555.066
750.620; 9574.658; -121.036; -220.935
750.881; 1044.535; -585.036; -513.935
751.142; 1375.786; -950.036; -938.936
751.403;16678.038; -789.036; -705.936
751.664; 7479.090;-1034.035; -999.936
751.925;  497.542; -175.035; -262.937
752.186;  273.894; -298.035; -278.937
752.447;  145.046; -590.035; -445.937
752.708;   60.422; -532.035; -648.938
752.969;   25.624; -566.034; -576.938
753.230;   -4.274; -777.034; -672.939
753.491;  -16.822; -650.034; -631.939
753.751;   64.880;  109.966;   19.061
754.012;   95.432;  258.967;  181.060
754.273;   60.058; -174.033;  -71.940
754.534;   26.860; -487.033; -580.940
754.794;  -79.288; -926.033; -911.941
755.055;  139.839; 1051.967;  881.059
755.316;  -26.434; -700.032; -566.942
755.576;  -37.208; -606.032; -576.942
755.837;  -36.756; -527.032; -695.942
756.097;  -37.054; -530.032; -564.943
756.358;  -66.677; -725.032; -770.943
756.618;  -43.625; -705.031; -641.943
756.879;   -2.098; -254.031; -349.944
757.139; -116.322;-1098.031;-1116.944
757.400;  -50.795; -538.031; -553.945
757.660;  -16.843; -365.031; -401.945
757.920;    3.509; -266.030; -228.945
758.181;  -11.789; -468.030; -351.946
758.441;  -77.162; -870.030; -809.946
758.701;  -36.761; -308.030; -215.946
758.961;  -22.009; -220.030; -278.947
759.222;  -46.532; -574.029; -502.947
759.482;  -88.030; -683.029; -723.948
759.742;  -72.978; -706.029; -547.948
760.002;    9.048;  -83.029; -143.948
760.262;   33.700;   50.972;  182.051
760.522;  -39.848; -498.028; -574.949
760.782;  -54.096; -738.028; -612.949
761.042;  -17.519; -618.028; -573.950
761.302;   62.708;   55.972;  -18.950
761.562;   63.184; -164.027; -154.951
761.822;  105.311; -710.027; -551.951
762.082;  -37.137;-1104.027;-1093.951
762.342;   74.165; -328.027; -403.952
762.601;   80.992; -567.027; -506.952
762.861;  381.394; -281.026; -207.952
763.121;  389.170; -406.026; -411.953
763.381; 7237.797; -499.026; -485.953
763.640; 8128.124; -139.026; -307.954
763.900;  376.051; -242.026; -203.954
764.160;   85.178; -458.025; -491.954
764.419;  -11.321; -726.025; -782.955
764.679;  -72.819; -795.025; -726.955
764.939;   -5.967; -124.025; -210.955
765.198;  -66.165; -608.025; -563.956
765.458;  -83.663; -710.024; -612.956
765.717;  -82.911; -454.024; -590.957
765.976;  -57.560; -428.024; -411.957
766.236;  -70.108; -475.024; -610.957
766.495;   22.719;  260.977;   73.042
766.755;  -80.454;-1090.023; -987.958
767.014;    4.473; -594.023; -665.958
767.273;  -50.601; -373.023; -397.959
767.533;  -52.699; -228.023; -307.959
767.792;  -34.722; -151.022; -188.960
768.051;  -43.595; -228.022; -276.960
768.310;  -81.393; -546.022; -650.960
768.569;    7.459; -161.022;    4.039
768.828;  -41.715; -285.022; -363.961
769.088; -119.463;-1050.021; -942.961
769.347;  -79.836; -755.021; -599.962
769.606;  -90.484; -876.021; -857.962
769.865; -112.032;-1016.021;-1033.963
770.124;   -7.905; -411.021; -336.963
770.383;  -45.179; -778.020; -910.963
770.641;   -4.102; -398.020; -400.964
770.900;  -73.250; -953.020; -846.964
771.159;  -47.998; -851.020; -951.964
771.418;   -7.396; -917.020; -779.965
771.677;  111.505; -224.019; -293.965
771.936;  125.307; -794.019; -865.966
772.194; 2035.684; -465.019; -437.966
772.453;10679.711; -213.019; -391.966
772.712;  752.588;  416.982;  329.033
772.970;  110.340;   32.982;   63.033
773.229;   83.916;  -22.018;  102.033
773.488;  -99.332; -814.018; -770.968
773.746;   54.070;  296.982;  335.032
774.005;    9.422;  190.983;  -22.969
774.263;   10.899;  243.983;  177.031
774.522;  -44.849; -422.017; -548.969
774.780;  -75.798; -484.017; -417.970
775.039;  -79.221; -551.017; -531.970
775.297;  -32.544; -135.016; -351.970
775.555; -100.342; -489.016; -612.971
775.814; -124.640; -618.016; -570.971
776.072; -127.764; -749.016; -740.971
776.330;  -95.187; -630.016; -520.972
776.589; -126.210; -703.015; -721.972
776.847; -119.133; -645.015; -624.973
777.105; -170.306;-1016.015;-1032.973
777.363;  -80.454; -459.015; -454.973
777.621; -132.803; -660.015; -717.974
777.879;  -22.626;  -42.014;   32.026
778.138; -107.149; -554.014; -717.974
778.396;  -91.772; -585.014; -526.975
778.654; -170.895;-1015.014; -970.975
778.912;  -71.643; -269.014; -371.976
779.170; -126.167; -880.013; -803.976
779.427; -151.165; -922.013; -897.976
779.685; -132.588; -880.013; -832.977
779.943;  -78.761; -654.013; -593.977
780.201; -154.859; -964.012; -883.978
780.459; -106.808; -651.012; -610.978
780.717;  -93.056; -440.012; -390.978
780.974;  -90.279; -449.012; -490.979
781.232;  -73.977; -358.012; -338.979
781.490;  -71.650; -551.011; -472.979
781.747;  -98.448; -555.011; -476.980
782.005;   13.728;  462.989;  254.020
782.263; -168.945; -542.011;-1004.981
782.520;  -78.193; -326.011; -501.981
782.778; -156.391;-1013.010;-1051.981
783.035; -173.114; -962.010; -938.982
783.293;  -72.137; -248.010; -206.982
783.550;  -60.136; -134.010; -198.982
783.808; -123.659; -764.010; -776.983
784.065; -149.482; -745.009; -874.983
784.322;  -50.130;   25.991;  -86.984
784.580; -136.303; -915.009; -771.984
784.837;  -89.802; -392.009; -466.984
785.094; -132.125; -783.009; -762.985
785.352;  -66.148; -304.008; -404.985
785.609;  -98.046; -934.008; -839.985
785.866;  -83.294; -345.008; -401.986
786.123;  -65.567; -639.008; -583.986
786.380; -107.091; -665.008; -604.987
786.637;  -51.314; -225.007; -380.987
786.895;   -5.112; -456.007; -543.987
787.152;  -55.435; -135.007; -267.988
787.409;  -64.208; -123.007; -225.988
787.666;  -94.432; -299.006; -378.988
787.923; -107.280; -616.006; -695.989
788.179; -109.328; -551.006; -584.989
788.436;  -90.251; -585.006; -585.990
788.693;  -34.899;  -92.006;  -87.990
788.950;  141.378; -125.005; -112.990
789.207;  235.929; -381.005; -372.991
789.464;  -47.319; -161.005; -301.991
789.720;   -1.717;  150.995;  110.009
789.977; -173.565;-1003.005; -671.992
790.234;  -41.513;   44.996;  -66.992
790.490; -147.036; -884.004;-1031.993
790.747;  -27.510;  -85.004;   22.007
791.004;  -12.958; -426.004; -348.993
791.260;  -56.356; -430.004; -560.994
791.517;  -92.129; -843.003; -788.994
791.773;  -36.227; -379.003; -342.994
792.030; -105.951; -596.003; -660.995
792.286; -103.024; -686.003; -636.995
792.543;  -17.897;  -74.002; -159.995
792.799;  -49.495; -584.002; -382.996
793.055; -166.243;-1179.002;-1210.996
793.312;  -99.166; -827.002; -816.997
793.568;  -50.940; -746.002; -599.997
793.824;   19.387; -226.001; -284.997
794.081;   17.739; -447.001; -508.998
794.337;   65.841; -664.001; -561.998
794.593; 1267.568; -319.001; -271.999
794.849; 6556.595; -746.001; -772.999
795.105;  347.196; -270.000; -261.999
795.361;   12.723; -490.000; -457.000
795.617;  -59.275; -875.000; -945.000
795.873;  -53.575; -360.000; -407.000
796.129;  -41.550; -368.000; -306.000
796.385;   -0.175; -124.000; -156.000
796.641;   57.975;  412.000;  550.000
796.897;  -79.150; -666.000; -635.000
797.153;   64.900;  453.000;  357.000
797.409;  -95.350; -785.000; -868.000
797.665;  -75.275; -625.000; -732.000
797.921;  -76.975; -775.000; -762.000
798.176;  -50.500; -744.000; -747.000
798.432;  -45.375; -824.000; -596.000
798.688;  -78.900;-1174.000;-1078.000
798.943;   85.950; -165.000; -147.000
799.199;    0.225;-1005.000; -959.000
799.455;  236.800;  369.000;  316.000
799.710;  107.225; -813.000; -380.000
799.966;  293.400; -162.000; -160.000
800.221;  452.550; -638.000; -721.000
800.477;10057.775; -743.000; -710.000
800.732; 9239.275; -773.000; -800.000
800.988;  629.075;  205.000;  -19.000
801.243; 1613.100; -454.000; -344.000
801.498; 7256.500; -814.000; -739.000
801.754;  426.300; -289.000; -163.000
802.009;   71.275; -257.000; -335.000
802.264;  -44.475; -967.000;-1033.000
802.520;    4.625;  222.000;   -3.000
802.775;  -57.500; -524.000; -359.000
803.030;   67.050;  395.000;  356.000
803.285; -120.850; -840.000; -903.000
803.540;  -64.450; -686.000; -699.000
803.795;  -38.075; -648.000; -583.000
804.051;  -39.825; -279.000; -346.000
804.306;   16.300;  168.000;  128.000
804.561;  140.425;  451.000;  362.000
804.816;  139.475;  714.000;  861.000
805.071;   20.225; -185.000; -280.000
805.325;  239.050; -257.000; -427.000
805.580;  -97.550; -841.000; -877.000
805.835;  -23.925; -204.000; -297.000
806.090;  -64.225; -760.000; -676.000
806.345;  -20.650; -344.000; -264.000
806.600;  -29.300; -549.000; -632.000
806.854;  -25.250; -408.000; -538.000
807.109;   -9.700; -493.000; -577.000
807.364;    2.400; -407.000; -328.000
807.618;    3.750; -415.000; -381.000
807.873;   51.050; -470.000; -494.000
808.128;  101.700; -257.000; -518.000
808.382;  105.050; -224.000; -332.000
808.637;   82.400; -440.000; -511.000
808.891;  174.950; -257.000; -180.000
809.146;   93.975; -902.000; -794.000
809.400;  277.250; -848.000; -923.000
809.654;  334.400; -779.000; -551.000
809.909;  497.975; -841.000; -927.000
810.163; 6569.725; -813.000; -651.000
810.418;17676.375; -940.000; -861.000
810.672; 1049.050; -685.000; -690.000
810.926;  691.250; -993.000; -973.000
811.180; 1338.000; -439.000; -372.000
811.434;30279.875;  240.000;  135.000
811.689;12752.150; -231.000; -365.000
811.943;  625.725; -936.000; -953.000
812.197;  315.500; -893.000; -671.000
812.451;  125.900; -379.000; -514.000
812.705;  -16.775; -809.000; -619.000
812.959;   -2.975; -263.000; -388.000
813.213;   -6.325; -283.000; -209.000
813.467;   75.975;  470.000;  253.000
813.721; -103.175; -764.000; -792.000
813.975;  -98.925; -826.000; -877.000
814.229;   54.125;  430.000;  353.000
814.482;  -72.625; -517.000; -566.000
814.736; -112.650; -766.000; -744.000
814.990; -123.875; -779.000; -872.000
815.244;  -48.575; -228.000; -285.000
815.497; -100.075; -636.000; -601.000
815.751;   -3.950; -141.000;   82.000
816.005;  -88.950; -470.000; -586.000
816.258;  -71.950; -510.000; -363.000
816.512; -127.350; -693.000; -610.000
816.766;    1.050;  121.000;  157.000
817.019;   20.100;  148.000;  149.000
817.273; -107.025;-1000.000; -802.000
817.526;  -34.500; -206.000; -173.000
817.779;  -33.450;-1049.000; -960.000
818.033;  -63.525; -693.000; -807.000
818.286; -126.525; -725.000; -792.000
818.540;  -86.100; -403.000; -403.000
818.793;  -78.150; -402.000; -489.000
819.046; -111.925; -582.000; -520.000
819.299;  -34.075; -157.000; -166.000
819.553; -108.875; -552.000; -592.000
819.806; -159.875;-1016.000; -838.000
820.059;  -48.725; -334.000; -354.000
820.312;   10.950;  152.000;  185.000
820.565;  -18.075;  110.000;  -27.000
820.818;  -41.625;  -59.000; -173.000
821.071; -162.900;-1041.000; -957.000
821.324; -103.800; -536.000; -540.000
821.577; -101.100; -457.000; -483.000
821.830;  -56.100; -270.000; -172.000
822.083; -129.175; -733.000; -288.000
822.336;  -46.175; -261.000; -167.000
822.589; -139.725; -805.000; -688.000
822.842; -134.750; -875.000; -770.000
823.094; -178.425;-1076.000;-1114.000
823.347; -142.425; -925.000; -729.000
823.600;   -9.875;  402.000;  187.000
823.853;  -54.500; -311.000; -267.000
824.105;  -63.925; -331.000; -575.000
824.358; -105.400; -617.000; -716.000
824.611;   19.025;  234.000;   40.000
824.863;  -42.600; -612.000; -591.000
825.116;   44.450;  -33.000;   27.000
825.368;   70.725; -366.000; -372.000
825.621;  161.925; -186.000; -240.000
825.873;   87.750; -704.000; -737.000
826.126;  548.575; -669.000; -641.000
826.378;11398.825; -389.000; -505.000
826.630; 2930.375; -890.000; -898.000
826.883;   35.950; -754.000; -693.000
827.135;   48.700; -279.000; -270.000
827.387; -116.775; -893.000; -839.000
827.639;  -21.000;  -86.000;   32.000
827.892; -122.800; -742.000; -582.000
828.144; -145.400; -848.000; -804.000
828.396;  -41.700;  104.000;  -80.000
828.648;  -98.225; -440.000; -333.000
828.900; -129.425; -702.000; -795.000
829.152; -118.550; -684.000; -683.000
829.404;  -57.850; -215.000; -267.000
829.656;  -51.375;  321.000;  214.000
829.908;  -13.750;  393.000;  229.000
830.160; -160.350;-1064.000;-1047.000
830.412; -100.400; -481.000; -430.000
830.664; -121.725; -557.000; -665.000
830.916;  -92.375; -268.000; -206.000
831.167; -175.950;-1073.000; -951.000
831.419; -114.575; -623.000; -566.000
831.671; -143.425; -764.000; -809.000
831.923;  -82.775; -311.000; -447.000
832.174;  -76.100; -273.000; -331.000
832.426; -111.350; -493.000; -582.000
832.678; -183.800;-1043.000;-1091.000
832.929; -159.875; -947.000; -935.000
833.181;  -65.675; -575.000; -677.000
833.432;  -56.475;  -59.000; -186.000
833.684;  -19.800;  112.000;  -27.000
833.935; -116.525; -610.000; -566.000
834.187; -120.250; -829.000; -823.000
834.438;  -60.150;  -58.000;  -25.000
834.689;  -65.075; -255.000; -123.000
834.941;  -66.950; -343.000; -244.000
835.192;  -84.175; -590.000; -533.000
835.443;  -94.675; -419.000; -506.000
835.695;  -19.425;  138.000;  -16.000
835.946;  -89.300; -608.000; -378.000
836.197;  -99.450; -599.000; -622.000
836.448;  -92.150; -528.000; -395.000
836.699;  -60.875; -253.000; -341.000
836.950;   -0.225;   72.000;    7.000
837.201; -149.825;-1003.000; -987.000
837.452;  -43.250; -356.000; -170.000
837.703; -112.400; -791.000; -737.000
837.954;  -31.750; -205.000; -365.000
838.205;  -86.600;-1029.000;-1008.000
838.456;  186.500; -196.000; -282.000
838.707;    3.750; -423.000; -519.000
838.958;   24.600; -634.000; -647.000
839.209;  289.450;   18.000;   40.000
839.460;  116.775; -439.000; -201.000
839.710;  161.600; -135.000; -297.000
839.961;  429.625;  730.000;  612.000
840.212;  360.725; -382.000; -497.000
840.462; 1116.275; -328.000; -277.000
840.713;17666.200; -571.000; -536.000
840.964; 7425.675;  -62.000; -143.000
841.214;  520.250; -384.000; -624.000
841.465;  585.950; -214.000; -141.000
841.715;  541.500; -417.000; -380.000
841.966;  699.000; -746.000; -685.000
842.216; 9076.300; -330.000; -431.000
842.466;36028.450; -169.000; -313.000
842.717; 2099.750; -964.000; -952.000
842.967;  335.150; -635.000; -641.000
843.217;  277.950;   20.000;   28.000
843.468;   73.300; -104.000; -132.000
843.718;  -43.525; -718.000; -726.000
843.968;  -87.825; -837.000; -765.000
844.218;   29.125; -315.000; -262.000
844.469;  -43.625; -577.000; -561.000
844.719; -111.925; -537.000; -682.000
844.969;  -86.050; -550.000; -580.000
845.219; -145.875; -814.000; -862.000
845.469;  -82.200; -392.000; -342.000
845.719; -130.175; -792.000; -884.000
845.969;  -19.450;  119.000;  174.000
846.219; -123.500; -738.000; -720.000
846.469;   11.725;  464.000;  432.000
846.718;  -49.550; -115.000;   31.000
846.968; -131.525; -827.000; -827.000
847.218;  -54.650; -224.000; -371.000
847.468; -120.075; -586.000; -555.000
847.718; -144.275; -827.000; -798.000
847.967; -133.675; -826.000; -915.000
848.217;  -92.025; -449.000; -569.000
848.467;  -61.775; -405.000; -376.000
848.716; -111.625; -708.000; -725.000
848.966;    4.075; -372.000; -358.000
849.215;  -59.350; -428.000; -419.000
849.465;  -97.250; -785.000; -615.000
849.714; -146.600;-1132.000;-1150.000
849.964;  -68.925; -551.000; -613.000
850.213;  -37.075; -393.000; -355.000
850.463;   71.900;  137.000;  340.000
850.712;   -6.975; -542.000; -567.000
850.961;   14.950; -739.000; -678.000
851.211;   94.150; -513.000; -504.000
851.460;  177.850; -635.000; -650.000
851.709;  543.275;  -25.000;   18.000
851.958;10090.325; -912.000; -750.000
852.208;12819.225; -859.000; -879.000
852.457;  479.400; -181.000;  -13.000
852.706;   66.850; -791.000; -823.000
852.955;   21.050; -507.000; -528.000
853.204;  -65.975; -521.000; -461.000
853.453;  -85.500; -418.000; -458.000
853.702; -117.325; -660.000; -750.000
853.951; -108.525; -532.000; -520.000
854.200; -101.575; -613.000; -562.000
854.449; -126.425; -695.000; -661.000
854.698;  -83.950; -340.000; -279.000
854.946;  -77.700; -181.000; -284.000
855.195; -144.450; -843.000; -868.000
855.444;  -79.000; -395.000; -420.000
855.693; -116.900; -345.000; -432.000
855.941; -105.625; -387.000; -516.000
856.190;  -57.575; -256.000; -382.000
856.439; -129.800; -652.000; -703.000
856.687;  -62.325;  -99.000;  -72.000
856.936; -112.700; -621.000; -323.000
857.184; -191.200;-1067.000;-1020.000
857.433; -115.200; -423.000; -512.000
857.681; -170.050; -989.000; -953.000
857.930;  -74.900; -282.000; -433.000
858.178; -166.500; -856.000; -929.000
858.427; -156.000; -802.000; -781.000
858.675; -111.250; -377.000; -544.000
858.923; -107.525; -527.000; -819.000
859.172; -189.900;-1094.000;-1070.000
859.420;  -87.575; -339.000; -239.000
859.668; -140.400; -624.000; -628.000
859.916;  -33.425;  109.000;  115.000
860.164; -111.650; -699.000; -603.000
860.413;  293.950; -878.000; -696.000
860.661;  244.450; -709.000; -577.000
860.909;  -62.375; -339.000; -325.000
861.157;  -93.225; -277.000; -444.000
861.405; -125.050; -534.000; -670.000
861.653;   11.450;  310.000;  310.000
861.901;  174.775; -543.000; -613.000
862.149;   15.675; -801.000; -824.000
862.396;  -89.850; -297.000; -187.000
862.644;  -94.525; -368.000; -347.000
862.892;  -31.300;   98.000;  138.000
863.140; -117.625; -549.000; -530.000
863.388; -150.575; -815.000; -759.000
863.635; -125.775; -642.000; -601.000
863.883;   -2.775;  231.000;  190.000
864.131;  -90.025; -288.000; -357.000
864.378; -124.900; -675.000; -540.000
864.626; -101.875; -347.000; -415.000
864.873; -130.100; -556.000; -505.000
865.121; -142.250; -714.000; -799.000
865.368;  -40.900; -173.000;   75.000
865.616;  -47.000;  -33.000;  -40.000
865.863;  -72.375; -462.000; -506.000
866.111; -111.400; -795.000; -824.000
866.358;   19.500; -426.000; -420.000
866.605; 2034.950;  -64.000; -804.000
866.853; 2193.475; -621.000; -537.000
867.100;  -55.600; -728.000; -775.000
867.347;  -88.675; -672.000; -611.000
867.594;  -90.300; -740.000; -714.000
867.841;  101.925;   97.000;   17.000
868.089; -156.225; -746.000; -698.000
868.336; -114.400; -477.000; -420.000
868.583; -136.050; -637.000; -741.000
868.830;  -46.675; -131.000; -170.000
869.077; -161.000; -859.000; -787.000
869.324; -128.875; -502.000; -458.000
869.571; -136.025; -398.000; -430.000
869.818; -108.750; -485.000; -439.000
870.065; -101.825; -439.000; -513.000
870.311; -119.200; -456.000; -542.000
870.558; -103.875; -332.000; -311.000
870.805;  -81.600; -320.000; -384.000
871.052; -105.975; -494.000; -369.000
871.298;  -62.200; -204.000; -131.000
871.545;  -55.825; -151.000; -185.000
871.792;  -83.725; -173.000; -222.000
872.038;  -76.550;   43.000; -126.000
872.285; -120.950; -496.000; -387.000
872.532;  -94.075; -357.000; -387.000
872.778;    6.600;  556.000;  403.000
873.025; -100.250; -384.000; -359.000
873.271;   14.350;  501.000;  578.000
873.517;  -33.025; -133.000; -209.000
873.764;  -27.875; -193.000;  -80.000
874.010;  -71.350; -143.000; -230.000
874.257;  -39.725;  123.000;   90.000
874.503; -139.175; -579.000; -479.000
874.749;  -81.400;   31.000;  275.000
874.995;  -68.325;  -80.000;  -20.000
875.242; -127.425; -540.000; -478.000
875.488; -109.125; -414.000; -439.000
875.734;  -48.750; -106.000; -234.000
875.980;  200.750; -872.000;-1032.000
876.226;  381.500; -157.000; -255.000
876.472;    4.000;  343.000;  237.000
876.718;  -37.800;  184.000;  158.000
876.964;  -51.050;   56.000;   55.000
877.210; -145.975; -547.000; -677.000
877.456; -150.025; -630.000; -557.000
877.702; -178.700; -821.000; -832.000
877.948; -118.625; -377.000; -497.000
878.193;   16.275;  361.000;  255.000
878.439;  -91.575; -487.000; -472.000
878.685; -103.100; -272.000; -343.000
878.931; -136.000; -618.000; -676.000
879.176;  -79.350; -201.000; -201.000
879.422; -179.925; -933.000; -820.000
879.668;   42.325;   10.000;   79.000
879.913;  148.475;   53.000;  137.000
880.159;  -54.275; -112.000;  -17.000
880.404;  -48.775; -152.000; -162.000
880.650;  -48.175;   91.000;  141.000
880.895; -175.350; -670.000; -710.000
881.141; -120.150; -454.000; -428.000
881.386; -154.700; -503.000; -658.000
881.631;  -70.750; -311.000; -166.000
881.877;  -56.975;  112.000;  -13.000
882.122; -143.125; -684.000; -600.000
882.367;  -91.525; -136.000; -186.000
882.612;  -73.050;  -80.000; -176.000
882.858; -174.200; -877.000; -823.000
883.103;  -98.525; -297.000; -267.000
883.348; -154.525; -759.000; -852.000
883.593; -143.225; -677.000; -602.000
883.838;  -47.450; -311.000;  -24.000
884.083;   16.600;  353.000;  288.000
884.328; -111.050; -564.000; -545.000
884.573;  -47.650; -196.000; -143.000
884.818;  196.750; -694.000; -531.000
885.063;  190.800; -348.000; -315.000
885.308; -111.350; -475.000; -398.000
885.553;  -13.525;  245.000;  325.000
885.797; -141.775; -545.000; -615.000
886.042;  -65.725;    8.000;   58.000
886.287;  -93.000; -253.000; -211.000
886.532;  -49.950;   26.000;  204.000
886.776; -103.350; -407.000; -525.000
887.021; -143.925; -621.000; -574.000
887.265; -158.600; -685.000; -689.000
887.510; -139.200; -557.000; -496.000
887.755; -101.300; -194.000; -164.000
887.999; -148.900; -552.000; -575.000
888.244;  -65.500;  -58.000;  161.000
888.488;  -14.675;  371.000;  393.000
888.732; -125.350; -368.000; -520.000
888.977; -133.600; -622.000; -567.000
889.221; -149.550; -683.000; -659.000
889.465; -133.550; -422.000; -566.000
889.710;  -75.450;  -56.000; -299.000
889.954;    4.575;  579.000;  467.000
890.198; -145.775; -584.000; -707.000
890.442; -161.075; -716.000; -712.000
890.687; -155.425; -800.000; -753.000
890.931;  -83.850; -273.000; -210.000
891.175; -128.300; -502.000; -500.000
891.419;  -61.550; -105.000; -110.000
891.663;  -94.100; -239.000; -112.000
891.907; -171.400; -801.000; -545.000
892.151; -168.400; -920.000; -815.000
892.395; -112.050; -274.000; -387.000
892.638;  -32.275;  408.000;  291.000
892.882; -182.225; -780.000; -867.000
893.126;   14.050;  758.000;  558.000
893.370;  -85.775; -167.000; -168.000
893.614; -144.275; -714.000; -715.000
893.857; -105.100; -183.000; -197.000
894.101; -147.275; -527.000; -631.000
894.345;  -58.275;  300.000;  150.000
894.588;    3.900;  569.000;  380.000
894.832;  -94.075; -178.000;  -84.000
895.075;  -90.175;   15.000;  -92.000
895.319; -125.350; -552.000; -420.000
895.563; -115.800; -413.000; -353.000
895.806; -145.650; -628.000; -741.000
896.049;  -74.575; -576.000; -368.000
896.293;  100.800;  527.000;  405.000
896.536;  -81.050; -465.000; -468.000
896.779;  -51.800; -149.000;   -1.000
897.023; -147.425; -751.000; -714.000
897.266;  -23.475;  325.000;  269.000
897.509; -180.675; -900.000; -901.000
897.752;  -48.925;  149.000;  171.000
897.996; -199.200; -972.000; -864.000
898.239;  -50.650;  168.000;  102.000
898.482; -131.325; -431.000; -453.000
898.725;  -35.375;  101.000;   53.000
898.968; -148.225; -609.000; -744.000
899.211; -101.125; -513.000; -361.000
899.454; -120.175; -633.000; -539.000
899.697;  -65.075;   90.000;  -43.000
899.940; -168.075; -761.000; -757.000
900.182; -115.775; -335.000; -405.000
900.425; -104.225; -150.000; -298.000
900.668;  -32.875;  491.000;  350.000
900.911;  -96.450; -292.000; -345.000
901.154;  -43.700;  141.000;   -3.000
901.396; -142.600; -407.000; -412.000
901.639; -144.825; -430.000; -496.000
901.882; -183.025; -790.000; -809.000
902.124;  -78.300;  -29.000; -143.000
902.367; -123.250; -315.000; -361.000
902.609; -148.500; -476.000; -453.000
902.852;  -89.300; -108.000; -260.000
903.094; -130.125; -458.000; -337.000
903.337;  -59.500;  -26.000;   53.000
903.579; -112.300; -228.000; -441.000
903.821; -143.925; -597.000; -744.000
904.064;  -71.800;   85.000;  127.000
904.306;  -73.450; -126.000; -166.000
904.548;  -95.375; -152.000; -366.000
904.790; -108.225; -195.000; -340.000
905.033; -127.225; -625.000; -577.000
905.275; -134.275; -513.000; -524.000
905.517;   35.375;  468.000;  256.000
905.759;  -66.125; -667.000; -761.000
906.001;  -96.675; -322.000; -369.000
906.243;  -66.100; -162.000; -224.000
906.485;  118.950; -265.000; -207.000
906.727;  104.200; -499.000; -542.000
906.969;  -35.150;  -30.000; -135.000
907.211;  128.950; -316.000; -382.000
907.453;  298.675; -188.000; -237.000
907.695;   14.050; -158.000; -385.000
907.936;   22.100;  818.000;  706.000
908.178;  -67.775;   92.000; -135.000
908.420;  -79.800; -111.000; -162.000
908.662; -153.075; -633.000; -682.000
908.903;  -80.025; -208.000; -123.000
909.145;  -55.275; -240.000; -305.000
909.386;    4.975;  315.000;  280.000
909.628;   28.125;  363.000;  397.000
909.870;   -3.225;   29.000;  264.000
910.111; -100.850; -809.000; -949.000
910.353;   19.000; -123.000; -161.000
910.594;    8.725; -574.000; -606.000
910.835;   69.725; -265.000; -326.000
911.077;  138.875; -503.000; -604.000
911.318;  268.075; -505.000; -471.000
911.559;  438.150; -577.000; -880.000
911.801; 1327.250; -284.000; -280.000
912.042;10001.100;  -50.000; -159.000
912.283;26717.825;  404.000;  371.000
912.524; 4237.325; -396.000; -457.000
912.765;  465.500; -193.000;   79.000
913.006;  228.875; -307.000; -338.000
913.247;   57.075; -270.000; -290.000
913.488;   -6.025;  -43.000;   30.000
913.729;  -71.275; -373.000; -373.000
913.970;  -71.100;  -96.000; -292.000
914.211;  -81.025; -160.000; -198.000
914.452;  -60.150; -118.000;  -11.000
914.693;    7.725;  510.000;  592.000
914.934;   13.775;  510.000;  440.000
915.175;  -51.325;   53.000;  -95.000
915.415;  -59.150; -137.000;   27.000
915.656;  -74.000;  -28.000;  192.000
915.897;  -96.375; -252.000;  -82.000
916.137;  -65.600;   74.000;   -9.000
916.378; -141.750; -573.000; -517.000
916.619;  -81.925; -159.000;  -63.000
916.859;  -29.050;  303.000;  330.000
917.100;  133.300; 1655.000; 1070.000
917.340;   62.900;  930.000;  728.000
917.581;   36.300;  965.000;  789.000
917.821;  -19.350; -171.000;  143.000
918.061;   12.775; -199.000;  -72.000
918.302;  -46.275; -152.000; -211.000
918.542;  -26.775;  -22.000;    3.000
918.782;   24.150;  369.000;  377.000
919.023;  126.275;  360.000;  427.000
919.263; 1756.900; 8131.000;  202.000
919.503; 1132.975; -137.000;  -54.000
919.743;  652.350;  390.000;  266.000
919.983;  276.400; -134.000;  -26.000
920.223;   76.075;  135.000;   14.000
920.463;  135.800;  631.000;  554.000
920.703;  118.100;   84.000;   39.000
920.943;  157.250; -110.000;   90.000
921.183;  212.875; -414.000; -405.000
921.423;  473.325;  307.000;  546.000
921.663;  699.425; -174.000; -257.000
921.903; 1528.025;  237.000;  173.000
922.143; 8336.925;  372.000;  389.000
922.383;32638.425;  158.000;  115.000
922.622;11367.750; -120.000;  -15.000
922.862; 1218.725;  796.000;  785.000
923.102;  461.025;  -51.000;   33.000
923.341;  185.700;   59.000;   74.000
923.581;   80.550;  450.000;  360.000
923.821;   29.950;  301.000;  398.000
924.060;    8.550;  351.000;  193.000
924.300;  -51.025;  -16.000; -128.000
924.539;   -3.500;  584.000;  473.000
924.779;   12.200;  812.000;  597.000
925.018;  -50.050;  247.000;  353.000
925.257;   -9.825;  595.000;  666.000
925.497;  -43.325;  447.000;  412.000
925.736;  -76.725;  -35.000;  102.000
925.975;  -14.825;  687.000;  669.000
926.214;   29.650;  907.000;  850.000
926.454;   25.550;  706.000;  757.000
926.693;  -41.300;  419.000;  543.000
926.932;   41.650; 1021.000;  825.000
927.171;   72.075; 1107.000; 1044.000
927.410;   53.675; 1144.000;  967.000
927.649;   27.025;  924.000;  742.000
927.888;    3.200;  590.000;  564.000
928.127;   -3.425;  680.000;  678.000
928.366;   31.675;  842.000;  826.000
928.605;   42.225;  831.000;  737.000
928.844;  222.600; 1451.000; 1393.000
929.083;  589.750;  770.000;  613.000
929.321;  322.075; 1335.000; 1359.000
929.560;   92.100; 1158.000; 1122.000
929.799;  -33.675;  574.000;  475.000
930.038;   81.775; 1025.000; 1394.000
930.276;  -66.650;  334.000;  397.000
930.515;    9.400;  827.000;  681.000
930.753;  -19.200;  614.000;  589.000
930.992;  -31.600;  664.000;  717.000
931.230;    0.425;  847.000;  847.000
931.469;  155.550; 2162.000;  892.000
931.707;   84.100;  840.000;  751.000
931.946;   47.950; 1278.000; 1344.000
932.184;   52.525; 1437.000; 1175.000
932.423;   58.500; 1265.000;  963.000
932.661;   85.600; 1296.000; 1428.000
932.899;   32.050;  987.000;  821.000
933.137;   11.750;  754.000;  564.000
933.376;  150.175; 1664.000; 1335.000
933.614;  164.625; 1759.000; 1196.000
933.852;   55.900; 1357.000; 1171.000
934.090;  124.200; 1722.000; 1747.000
934.328;   97.800; 1252.000; 1457.000
934.566;   84.725; 1431.000; 1110.000
934.804;  122.975; 1263.000; 1309.000
935.042;  412.400; 1861.000; 1850.000
935.280; 1659.875; 2088.000; 2063.000
935.518; 1622.175; 2113.000; 2007.000
935.756;  354.100; 2481.000; 2316.000
935.994;  164.050; 1808.000; 1751.000
936.231;  345.075; 2890.000; 2950.000
936.469;  193.600; 2367.000; 2378.000
936.707;  167.475; 2220.000; 2167.000
936.945;  227.025; 2825.000; 2882.000
937.182;  214.300; 2679.000; 2741.000
937.420;  317.500; 3602.000; 3031.000
937.657;  422.825; 3365.000; 3478.000
937.895;  376.575; 3331.000; 3488.000
938.133;  327.450; 3540.000; 3528.000
938.370;  330.775; 3896.000; 4191.000
938.607;  407.800; 4488.000; 4205.000
938.845;  551.150; 5587.000; 5549.000
939.082;  486.675; 5387.000; 5177.000
939.320;  537.600; 5799.000; 5728.000
939.557;  642.850; 6549.000; 6491.000
939.794;  730.800; 7285.000; 7097.000
940.031;  902.800; 8421.000; 8368.000
940.269; 1121.725; 9552.000; 9107.000
940.506; 1101.425;10901.000;10507.000

