
Integration time [ms]: 100.000
Averaging Nr. [scans]: 40
Smoothing Nr. [pixels]: 0
Data measured with spectrometer [name]: 2101013U2
Wave   ;Sample   ;Dark     ;Reference
[nm]   ;[counts] ;[counts] ;[counts] 

394.013;   46.507; -450.257; -315.536
394.305;  178.305; -461.258; -419.536
394.596; 1600.129; -676.269; -527.514
394.887; 4216.400; -796.268; -654.518
395.178; 1503.987;  145.736;   11.476
395.470;   94.800; -210.263; -356.526
395.761;  145.593;  305.734;  394.479
396.052;  125.502; -545.284; -306.489
396.343;   90.937; -557.276; -454.503
396.634;   37.974; -200.279; -290.497
396.926;    6.621; -618.268; -565.517
397.217;   70.867;   11.725;  -17.504
397.508;   28.537; -366.273; -154.507
397.799;   21.274; -555.279; -571.497
398.090;   -5.408; -973.280; -902.495
398.381;   83.811;   11.708;  -11.473
398.672;  -40.788; -585.292; -742.473
398.963;   23.056; -348.279; -373.498
399.254;   79.223;   54.709; -209.475
399.545;  -35.311;-1017.266; -883.520
399.836;   52.074; -407.277; -343.501
400.127;   49.657; -205.295; -209.468
400.418;   28.055; -423.274; -392.506
400.709;   37.401; -359.281; -333.493
401.000;   43.028; -268.291; -309.476
401.290;  101.030;  225.698;  115.545
401.581;   61.256; -166.286; -228.485
401.872;   25.823; -542.298; -486.462
402.163;   54.823; -313.296; -252.467
402.454;  103.874; -123.291; -163.475
402.744;   49.212; -844.297; -813.465
403.035;  237.550; -226.293;  -86.471
403.326;  327.391; -366.292; -384.474
403.617;  324.441;  204.701;  165.539
403.907;  341.734; -593.283; -679.490
404.198; 3639.749; -545.307; -599.446
404.489; 9186.765; -618.283; -588.491
404.779; 2593.159; -618.302; -660.456
405.070;  264.933;  -67.304; -174.451
405.360;  481.527; -259.293; -238.472
405.651;  466.598;  125.699;   98.542
405.942;  162.400;  209.714;  127.516
406.232;   83.668; -432.285; -413.487
406.523;  246.294;  641.706;  758.530
406.813;   49.853; -579.286; -644.484
407.104;  200.359;  261.708;  144.527
407.394;   68.042; -604.299; -591.462
407.685;  137.792;  336.715;  222.513
407.975;   50.188; -400.283; -382.490
408.265;  122.241; -134.289; -190.478
408.556;   46.770; -472.291; -459.475
408.846;  178.795;  474.706;  429.530
409.137;  108.652;   -1.288; -216.480
409.427;   78.068; -193.285; -271.487
409.717;   46.816; -776.273; -692.508
410.007;  138.810;    4.715; -170.486
410.298;  111.285; -360.295; -342.469
410.588;  101.239; -495.285; -510.486
410.878;   50.690; -792.287; -873.482
411.168;  125.751; -481.298; -478.463
411.459;  129.982; -295.283; -242.489
411.749;   92.818; -609.292; -507.474
412.039;   67.700; -755.289; -386.480
412.329;  234.215;   40.722;  132.501
412.619;  213.553;  -62.286; -148.485
412.909;  364.145;  639.711;  594.521
413.199;  317.217; -130.280; -251.495
413.490;  390.483;  521.710;  352.523
413.780;  212.222;-1013.279; -913.496
414.070;  388.438;  -46.276;  235.497
414.360;  385.360; -729.278; -666.498
414.650;  546.435; -726.288; -688.482
414.940;  744.871; -538.280; -441.496
415.230; 1244.457;   50.712;   74.519
415.520; 8587.928;  155.730;   66.486
415.809;34922.326; -305.281; -125.493
416.099;26145.201; -388.277; -229.501
416.389; 7829.802;  435.726;  236.494
416.679; 4507.430;   91.738;   85.473
416.969;  791.696; -527.287; -503.483
417.259;  652.374;  341.721;  171.503
417.549;  903.799;  522.718;  318.508
417.838; 2424.174; -205.268; -147.518
418.128; 8404.240;  650.710;  492.522
418.418; 6858.098; -491.272; -579.509
418.708; 4555.702;    9.726;  -48.506
418.997;17895.147; -474.275; -480.505
419.287;18152.686; -733.273; -790.507
419.577;17810.306; -160.283; -123.489
419.866;57070.974; -588.277; -498.501
420.156;55573.348; -242.270;  -55.513
420.446; 9202.671; -112.263;  -26.526
420.735;  925.316; -376.271; -446.512
421.025;  915.684; 1830.722;  315.502
421.314;  562.039; -203.271; -226.512
421.604;  723.290;   89.732;  233.484
421.893;  450.759; -705.271; -602.511
422.183;  289.971; -487.263; -461.526
422.472;  399.036;  -36.271; -107.511
422.762;  406.946; -416.266; -379.521
423.051;  261.314; -916.276; -916.503
423.341;  340.588; -491.273; -439.507
423.630;  402.553; -121.265;   15.477
423.919;  428.696;   58.725;   49.495
424.209;  463.327;  -31.263;   56.473
424.498;  663.921;   68.732;  161.483
424.787; 1471.354; -535.267; -601.518
425.077; 4376.376;   34.735;   29.478
425.366; 4838.159; -734.262; -744.528
425.655;13624.539;  639.727;  259.493
425.945;35000.416; -313.247; -268.554
426.234;18338.687;  117.741;  300.467
426.523; 7401.968;  -86.259; -350.534
426.812;10020.216;  107.734;  159.480
427.101;15070.061; -127.269; -323.515
427.390;17660.753;  -55.270;  -86.514
427.680; 2606.517; -624.257; -411.538
427.969;  520.080; -330.255; -301.540
428.258;  362.957; -385.257; -477.536
428.547;  519.703;  449.728;  397.490
428.836;  775.675; -421.253; -398.543
429.125; 1052.070; -199.259;  -72.534
429.414;  802.252; -330.251; -294.548
429.703; 4586.102; -231.251; -213.548
429.992;14120.432; -938.250; -828.549
430.281; 8932.462; -397.264; -331.524
430.570;  623.891;  -21.252;   32.454
430.859;  447.793;  279.741;  352.466
431.148;  413.336;  636.752;  631.446
431.437;  326.340;  391.748;  367.454
431.725;  197.334; -544.257; -481.536
432.014;  220.359; -845.253; -756.545
432.303;  418.503; -149.239; -105.569
432.592;  581.545; -460.263; -178.525
432.881; 1441.487; -601.248; -437.554
433.169; 9654.581; -343.255;  -61.540
433.458;19519.069;  445.765;  540.424
433.747; 7606.916; -397.261; -289.529
434.036;  954.774; -275.242; -280.564
434.324; 2932.972; -395.249; -379.551
434.613; 5326.691;   40.757;  159.437
434.902; 1526.941;  333.760;  439.433
435.190;  302.227;   75.761;  295.431
435.479;  193.269;  -52.245;   83.441
435.767;   89.879; -411.244; -427.561
436.056;  230.919; -340.242; -294.563
436.345;  512.419; -372.240; -223.568
436.633;  449.541;   60.750;  383.450
436.922;  202.597;  208.760;  414.432
437.210;  227.232; -194.236;    1.426
437.499;  539.642; -583.235; -432.576
437.787;  623.881; -339.236;  -10.574
438.075;  198.333;   56.761;  162.430
438.364;  238.036;  -44.238;  250.429
438.652;  113.064; -286.226; -138.592
438.941;   95.770;    3.770;  269.415
439.229;   -9.363; -665.252; -466.545
439.517;   27.352; -160.234;  -85.577
439.806;  -15.017; -501.225; -290.595
440.094;  143.486;  377.766;  650.421
440.382;   41.716; -653.233; -302.580
440.670;   59.541; -361.235; -285.576
440.959;    6.604; -347.223; -170.599
441.247;   34.659; -151.229; -109.587
441.535;   46.900; -266.235;   31.423
441.823;    8.558; -497.234; -305.578
442.111;  156.839;  173.771;  327.412
442.400;  314.868; -628.245; -335.559
442.688;  570.261; -111.234; -620.579
442.976;  289.611; -786.213; -450.617
443.264;   32.716; -324.224; -364.597
443.552;   72.015; -258.226;   51.408
443.840;  136.348;  602.765;  876.423
444.128;   90.865;  265.767;  269.420
444.416;   -5.608; -694.228; -312.588
444.704;   28.740; -465.219;  -92.605
444.992;   47.869;   -0.226;  240.407
445.280;   10.446; -517.230;  -94.585
445.568;    2.090; -694.212; -396.618
445.856;  163.721; -174.221;  357.398
446.143;  278.360;  -54.220;   -7.604
446.431;  248.622;  -25.228;  625.411
446.719;  157.138;  489.783;  675.391
447.007;  152.664;  481.769;  705.416
447.295;  161.675;  597.777;  871.402
447.583;   80.956; -464.229;  -34.587
447.870;  108.692; -434.221; -202.601
448.158;  255.369; -104.230;  129.415
448.446;  149.687; -800.219; -338.604
448.733;  139.143;   13.776;  269.403
449.021;  187.289;   60.788;  341.382
449.309;  174.458; -296.210;  208.379
449.596;  222.809;  128.783;   59.392
449.884;  214.959; -571.222; -325.600
450.172;  267.453; -756.227; -406.590
450.459;  636.365;  645.786;  780.387
450.747; 3777.332; -411.218; -147.608
451.034;12242.098;  493.772;  889.411
451.322; 9802.744; -413.214; -170.614
451.609;  741.794;  292.777;  508.403
451.897;  897.809; -550.203; -183.634
452.184; 2741.126; -622.223; -400.598
452.472; 2399.034;   97.792;  269.375
452.759;  337.463;  512.781;  864.395
453.047;   76.412; -407.212; -125.617
453.334;   55.997; -732.219; -216.606
453.621;   44.072; -438.214; -161.615
453.909;   97.324;   13.796;  384.368
454.196;   92.555; -299.199; -123.641
454.483;  247.725;  317.798;  540.364
454.771;  126.162; -215.208;  196.374
455.058;   59.966; -316.207;  102.374
455.345;  152.772;   71.807;  344.347
455.632;  119.570; -128.207;  235.373
455.919;   53.407;  -82.196;  182.354
456.207;  -47.890; -774.198; -450.642
456.494;    9.740; -475.200;  -66.639
456.781;   29.070; -399.202; -198.635
457.068;   61.178; -253.206;  -29.628
457.355;    3.055; -698.206; -401.629
457.642;    6.186; -552.205; -290.630
457.929;   43.311; -778.194; -417.651
458.216;  109.637; -575.212; -354.617
458.503;  396.316; -173.193;  -19.652
458.790;  427.110; -864.208; -630.625
459.077;  380.126;  -77.202;  110.364
459.364; 1200.952; -350.195; -210.649
459.651; 2557.976;  -46.206;  220.372
459.938; 1132.673; -864.209; -665.623
460.225;  120.680;  132.799;  276.363
460.512;  -36.896; -836.197; -688.645
460.799;  125.706;  -32.218;  320.392
461.086;   92.895; -370.200; -251.640
461.372;   19.836; -509.198; -279.642
461.659;   44.258; -165.196;  108.354
461.946;   36.140; -445.193;  -54.651
462.233;  204.792;  842.800;  888.361
462.519;  495.713; -814.201; -464.639
462.806; 1505.304; -768.197; -497.645
463.093; 1305.490; -445.191;  -66.656
463.380;    8.165; -920.186; -824.664
463.666;   69.331; -259.197;  -18.646
463.953;  114.821; -406.195; -243.648
464.239;  258.221; -173.195;  -77.648
464.526;  403.334;  413.806;  743.350
464.813;  332.679; -565.190; -304.658
465.099;  326.041;  606.807;  607.348
465.386;  270.621;  903.807;  921.348
465.672;    3.154; -694.197; -522.645
465.959;   21.351; -598.188; -520.662
466.245;    6.821; -468.193; -359.652
466.532;   55.318; -109.195;   63.352
466.818;   17.490; -357.186; -216.664
467.104;  -17.562; -488.182; -415.672
467.391;  -20.319; -628.189; -459.658
467.677;   20.769; -289.186;    9.335
467.964;  -15.686; -682.189; -471.660
468.250;   44.997; -331.186; -160.665
468.536;   74.908;   90.811;  180.341
468.822;  -21.663; -821.184; -574.668
469.109;  131.861;  351.827;  471.311
469.395;  203.858;  729.808;  787.346
469.681;  223.536;   46.811;  156.341
469.967; 1834.067; -699.188; -382.660
470.254; 4038.577; -494.188; -306.662
470.540; 2533.607; -601.196; -476.646
470.826;  392.902; -488.181; -397.675
471.112;  403.191;  288.816;  113.331
471.398;   81.697; -253.183;  -58.670
471.684;   43.186; -626.177; -447.680
471.970;   17.031; -918.180; -981.675
472.256;   42.506; -521.192; -441.654
472.542;   19.675; -499.171; -434.691
472.828;   34.608; -743.182; -607.672
473.114;   44.053; -380.166; -283.700
473.400;   21.181; -504.175; -293.684
473.686;   26.635; -452.166; -400.701
473.972;   56.324; -230.174; -131.687
474.258;  -13.489; -925.173; -843.689
474.544;  316.026; -183.178;   -2.679
474.830;  502.108;  -65.175;   45.316
475.116;  786.956; -123.190; -196.658
475.401; 1080.759; -558.180; -467.676
475.687;  288.008; -725.180; -718.676
475.973;  -11.582; -673.181; -770.673
476.259;  239.361;  736.825;  764.315
476.544;  534.796; -539.176; -437.682
476.830; 1366.570; -398.172; -322.690
477.116; 1207.569; -430.177; -336.682
477.401;  167.109;  346.820;  358.324
477.687;   -9.369; -289.175; -405.684
477.973;   42.172;   21.819;   28.326
478.258;   -1.440; -448.163; -348.706
478.544;   41.979;   21.815;   61.334
478.829;  -56.644; -818.171; -738.692
479.115;  -40.981; -749.172; -651.690
479.401;   17.569; -444.174; -449.686
479.686;   59.882; -253.180;  -74.676
479.972;  -13.143; -886.178; -776.680
480.257;   43.829; -258.166;  -65.700
480.542;   41.636; -614.170; -469.693
480.828;  232.804; 1288.824; 1392.317
481.113;  -21.173; -464.176; -426.683
481.399;    1.614; -236.161; -202.711
481.684;  -51.521; -620.166; -462.700
481.969;   14.305; -158.159;  -73.713
482.255;  -11.326; -439.169; -285.695
482.540;    0.308; -569.178; -441.680
482.825;   12.059; -395.187; -404.663
483.110;  133.553;  -85.169; -105.696
483.396;  361.606; -840.157; -652.718
483.681;  737.249;  543.826;  730.313
483.966;  294.998; -696.160; -700.712
484.251;    2.298; -404.174; -310.687
484.536;   13.667; -356.165; -378.703
484.822;   27.202; -205.173; -218.687
485.107;  -33.197; -599.152; -502.726
485.392;  139.798;  662.836;  541.296
485.677;   67.290;  354.832;  163.302
485.962;  106.403;  160.843;  270.283
486.247;  106.970;  -14.162;   -8.707
486.532;   71.906; -178.166; -325.701
486.817;  172.832;  381.839;  431.291
487.102;  152.432; -453.154; -514.722
487.387; 1064.584; -637.156; -652.718
487.672; 1942.580; -154.164;  -38.705
487.957; 1185.066; -394.160; -286.711
488.241;  309.698; -290.150; -314.729
488.526; 1187.429; -280.152; -148.726
488.811; 1985.710; -881.177; -818.680
489.096; 1343.660; -666.154; -702.723
489.381;  722.150;    3.847;  162.275
489.666;  615.414; -428.161; -510.710
489.950;  207.014;  558.846;  627.277
490.235;  -27.308; -480.151; -458.728
490.520;  -32.788; -756.161; -723.710
490.804;  -42.089; -827.156; -736.719
491.089;    5.217; -469.149; -299.732
491.374;   35.828; -132.164;  -75.704
491.658;   -8.194; -817.147; -717.735
491.943;  108.410; -657.152; -609.727
492.227;  219.202; -178.155;  -38.721
492.512;   29.328; -294.157; -341.717
492.797;  -50.190; -713.149; -716.731
493.081;  -40.941; -588.147; -598.735
493.366;  -43.036; -751.161; -635.711
493.650;  227.324;  831.859;  917.254
493.935;   81.505; -648.147; -447.734
494.219;  -19.467; -778.142; -687.743
494.503;  -29.246; -585.150; -487.730
494.788;   52.543;   46.842;   74.285
495.072;  125.775;  184.850;  434.271
495.356;  226.021; -463.148; -343.733
495.641;  525.967; -812.146; -736.736
495.925;  458.767; -976.156; -903.719
496.209;    9.016; -599.149; -451.732
496.494;  -47.541; -763.142; -544.744
496.778;   15.307; -364.154; -360.722
497.062;  -43.834; -819.156; -627.719
497.346;   -3.607; -869.160; -640.711
497.631;  181.525;  580.852;  560.266
497.915;   83.105;  -64.145;  175.261
498.199;   45.606; -341.157; -277.718
498.483;   30.652; -562.152; -508.725
498.767;  242.226;  301.850;  300.271
499.051;  288.839; -126.149; -100.732
499.335;   69.086; -693.149; -739.731
499.619;  -25.553; -381.129; -423.767
499.903;    2.175; -272.155;  -65.721
500.187;   25.916; -588.153; -316.724
500.471;   16.609; -796.152; -595.727
500.755;  109.363;   62.839;  -96.710
501.039;    6.851; -270.155; -357.721
501.323;   68.376;  -21.141;  264.254
501.607;   16.860; -447.163; -503.706
501.891;   -0.617; -607.156; -512.718
502.174;  -40.381; -726.144; -585.741
502.458;   56.488;   89.849;  370.273
502.742;   49.780; -180.138; -191.751
503.026;  205.305; -412.147; -254.734
503.310;  297.479; -437.159; -375.713
503.593;  204.907; -464.147; -325.735
503.877;  136.529; -232.133; -156.760
504.161;  173.394;    2.847;  -50.724
504.444;  176.495; -841.158; -710.716
504.728;  761.627; -487.164; -522.704
505.012; 1105.172; -257.150;  -76.729
505.295;  811.139; -417.161; -212.711
505.579;  845.641; -256.156; -496.719
505.862; 1232.601; -555.145; -333.738
506.146; 1237.507; -681.159; -758.714
506.429;  563.782;  568.841;  461.286
506.713;  127.244; -732.151; -667.728
506.996;  485.706;   90.846;  295.278
507.280;  554.296; -633.165; -474.703
507.563;  369.799; -469.155; -261.721
507.847;  165.642; -423.153; -112.724
508.130;  169.940; -665.161; -456.711
508.413;  217.349; -758.167; -577.700
508.697;  394.374; -151.167;   12.300
508.980;  273.568; -422.153; -312.724
509.263;   17.219; -466.155; -450.720
509.547;   38.722; -124.150;   82.271
509.830;   51.117; -172.160;  140.289
510.113;   91.866;  128.844;  298.281
510.396;   55.725; -530.152; -300.725
510.680;   30.802; -818.145; -812.738
510.963;  221.587;  184.846;  180.277
511.246;  114.106; -493.150; -357.730
511.529;  272.383; -482.145;  -83.739
511.812;  618.200; -250.134;   10.241
512.095;  471.265; -740.151; -396.728
512.378;  103.487; -317.147; -245.736
512.661;   74.214; -703.137; -623.753
512.944;   71.836; -750.142; -637.744
513.227;  113.336; -170.137; -171.752
513.510;   60.344; -479.144; -671.741
513.793;   26.856; -485.140; -435.747
514.076;  152.372;  -43.127;  -39.771
514.359;  162.467; -294.149; -135.732
514.642;  141.264; -442.142; -567.744
514.925; 1124.629;  581.860;  561.253
515.208; 1658.470; -498.134; -443.758
515.491; 1040.337; -276.133; -182.761
515.773;  580.198; -410.143; -337.742
516.056; 3290.322;  249.864;  409.246
516.339; 4313.702; -754.136; -652.755
516.622; 2036.778; -518.150; -488.730
516.904;  569.607;  882.857;  975.257
517.187;  236.734; -730.138; -523.752
517.470;  434.880; -568.143; -510.743
517.752;  699.780; -624.136; -470.756
518.035;  564.619; -708.139; -725.749
518.318;  609.327; -799.136; -744.755
518.600; 3992.916; -300.132; -325.762
518.883; 5473.639;  310.858;   88.256
519.165; 2508.750; -585.138; -426.751
519.448;  425.541;  -61.132;  -19.762
519.730;  194.656; -573.126; -415.773
520.013;  246.932;  588.867;  664.240
520.295;  303.802;  -94.134;  -15.759
520.578;  696.782; -335.131; -305.764
520.860;  926.166; -254.132;   56.238
521.143;  662.558; -763.135; -584.756
521.425;  601.422; -251.125; -279.775
521.707;  984.672; -622.127; -380.771
521.990; 2771.048; -199.127;  167.229
522.272; 3234.933; -116.140;   -4.748
522.554; 1171.474; -237.143; -157.742
522.836;  265.024;  -24.134;   99.241
523.119;  183.228; -496.148; -189.734
523.401;  187.115; -448.130; -314.766
523.683;  160.915; -865.137; -693.753
523.965;  435.032;  408.862;  260.248
524.247;  433.347;   54.878;  170.220
524.529;  324.751; -451.134; -367.759
524.812;  486.067;   -3.130;  191.234
525.094; 1383.081; -773.138; -631.751
525.376; 2199.183; -143.124;   78.223
525.658; 1333.773; -441.136; -339.754
525.940;   90.653; -805.131; -671.764
526.222;   27.478; -188.136;  -88.755
526.504;   50.675; -190.131;   32.237
526.786;   29.555; -960.133; -647.760
527.068;  112.714; -124.123;  -67.778
527.349;   17.719; -865.137; -774.754
527.631;  118.616; -137.132;   22.238
527.913;  248.446; -664.127; -450.771
528.195;  299.613; -761.125; -639.774
528.477;  391.795;  -93.134;  -30.758
528.759;  268.242; -648.130; -522.766
529.040;  157.738; -569.123; -293.778
529.322;   88.591; -235.125;  -10.774
529.604;   86.220;  -47.130;   93.233
529.886;   54.731; -546.126; -302.773
530.167;   81.310;  232.870;  192.235
530.449;   12.186;    1.853;   63.265
530.731;   81.496; -572.122; -459.779
531.012;  140.671; -513.120; -216.784
531.294;  133.769; -118.116;  -43.792
531.575;  185.797;  290.875;  538.225
531.857;  138.589; -548.135; -266.757
532.138;  126.399; -113.141;   40.254
532.420;  126.785;  294.865;  403.244
532.701;   88.132; -722.133; -751.760
532.983;  211.511;  232.867;  182.239
533.264;   53.503; -243.126;  175.228
533.546;  -42.648; -491.136; -508.755
533.827;   34.628;  173.867;   -1.759
534.109;   21.689; -352.135;  -80.757
534.390;   89.571; -725.132; -582.762
534.671;  295.509; -270.135;  -82.756
534.953;  196.366; -751.123; -611.779
535.234;   49.601; -426.117; -255.789
535.515;  -52.568; -891.119; -735.785
535.796;    7.816; -431.128; -193.770
536.078; -103.593;-1050.124; -904.777
536.359;   11.517;  -22.123;    3.221
536.640;  -12.185; -480.125; -197.774
536.921;  170.651;  225.871;  143.232
537.202;  534.827;  -87.138;  -16.751
537.483;  686.856;  251.869;  377.236
537.764;  286.235;   17.870;   98.235
538.045;  -19.806; -543.134; -371.758
538.326;  -25.572; -596.129; -447.768
538.607;   69.348; -686.127; -476.771
538.888;  269.286;   98.879;    5.218
539.169;  318.329; -704.122; -535.781
539.450;  409.400;  236.871;   16.233
539.731;  274.365; -361.121; -182.783
540.012;  148.646;  199.880;  412.216
540.293;  109.351;   82.876;  158.224
540.574;    3.419; -895.113; -717.796
540.855;  529.764;  435.879;  377.218
541.136;  681.701;   47.878;  139.220
541.416;  384.993; -161.130; -220.766
541.697;  308.701; -274.131; -170.763
541.978; 1679.862; -270.135; -315.757
542.259; 2094.923; -211.127; -236.771
542.539;  962.936; -191.116; -186.790
542.820;  210.896;  461.875;  480.225
543.101;  148.754;  -52.145;  -77.738
543.381;   48.273; -638.127; -591.771
543.662;  374.745;  159.873; -254.771
543.942;  982.243; -751.127; -830.770
544.223; 1649.228;  193.878;  161.219
544.504; 1109.582; -275.124; -182.777
544.784;  879.330; -592.126; -408.773
545.065; 2501.116;  104.884; -254.791
545.345; 2983.207;  227.881;   14.215
545.626; 1956.868;  -14.113; -108.796
545.906; 1402.434;   77.869;   98.235
546.186;  594.261;   92.874;  -95.773
546.467;  329.985;   99.877;  -95.778
546.747;  500.986;  264.884;  327.210
547.027;  604.055;   91.876;  111.223
547.308;  542.117; -376.127; -530.770
547.588;  581.729;  299.871;  371.232
547.868;  245.611;  458.870;  588.235
548.149;  251.725;  609.885;  593.207
548.429;  235.396; -347.127; -299.771
548.709;  375.496; -645.120; -461.784
548.989;  771.218;   84.882;   88.213
549.269; 3292.414;   10.868;  139.239
549.550; 7760.790;  215.877;  117.222
549.830; 6942.440; -758.111; -556.799
550.110; 1345.574; -468.110; -320.801
550.390; 1323.547; -128.122;  -56.779
550.670; 1886.388; -868.114; -783.795
550.950; 1317.438; -509.121; -471.782
551.230;  261.734;  549.879;  460.218
551.510;   49.387; -381.121; -326.782
551.790;   69.783; -173.109; -127.803
552.070;  310.510;  940.877; 1181.223
552.350;  706.412; -492.119; -377.786
552.630;  951.781;   -2.121;   77.219
552.909;  561.367;  181.884;   73.209
553.189;  370.222;  -49.132;   33.237
553.469;  381.911; -703.119; -514.786
553.749;  369.225; -469.127; -357.772
554.029;  272.431;   33.883;  -24.790
554.308;  259.105; -154.115;  -37.794
554.588;  137.440; -196.128; -204.770
554.868;  154.339; -366.121;  -47.782
555.147;  270.202; -114.115;  -46.793
555.427;  959.144; -260.116; -250.792
555.707; 6196.399; -284.115; -200.793
555.986; 7747.769; -719.111; -538.800
556.266; 3896.285;   23.884;   72.210
556.546;  249.062; -888.121; -675.782
556.825;  438.860; -657.114; -556.794
557.105; 2889.813; -125.128;   17.230
557.384; 3408.540;  122.884;  187.209
557.664; 1310.194; -717.116; -508.792
557.943;  231.838; -557.121; -411.782
558.222;  319.047; -345.118; -344.788
558.502;  417.578; -116.115;  -76.793
558.781;  756.648;  194.885;  499.208
559.061;  659.722; -232.118; -227.788
559.340;  462.853;  302.883;  353.211
559.619; 1160.509;   93.884;  148.210
559.899; 1715.680; -239.117; -266.789
560.178; 1526.428; -778.115; -593.793
560.457; 4825.357; -623.117; -562.790
560.736; 6872.895; -472.111; -482.800
561.015; 4505.335; -500.128; -502.769
561.295;  558.957;  180.893;  215.193
561.574;  453.300;  119.885;  116.207
561.853;  702.439;  274.891;  303.197
562.132;  792.256;  -45.114;  182.206
562.411;  686.306;  396.879;  553.219
562.690;  277.297; -592.115; -458.792
562.969;  170.427;  472.888;  630.203
563.248;  526.454; 2966.878; 2487.219
563.527;  483.044; -290.111; -408.800
563.806;  685.996; -650.127; -521.771
564.085;  701.176; -297.105; -206.810
564.364;  456.584; -594.117; -405.790
564.643;  816.782; -276.121; -223.781
564.922; 3009.131;  221.890;  397.198
565.201; 3106.761; -640.109; -700.803
565.479; 1308.871; -297.115; -219.792
565.758;  574.963; -810.128; -712.770
566.037;  782.287; -155.109; -100.803
566.316;  377.966; -286.116;  -28.791
566.595;   79.974;  -17.115;  -12.793
566.873;  126.772; -166.111;  -79.801
567.152;  -24.249; -490.113; -590.797
567.431;   27.311; -113.116;    6.210
567.709;   52.658; -344.107; -212.807
567.988;  487.935; -810.114; -769.794
568.266;  880.949; -160.115;  -68.793
568.545;  643.108; -644.100; -514.819
568.824;  930.595;  160.885;  356.208
569.102;  968.335; -351.114; -235.794
569.381;  420.819; -492.116; -407.792
569.659;  -23.703; -553.113; -553.796
569.938;  123.026; -743.122; -465.780
570.216;  203.940; -225.109; -225.804
570.494;   31.239; -632.114; -572.795
570.773;   43.686;  202.879;  114.218
571.051;   56.488; -373.123; -357.778
571.330;  118.394; -221.113; -174.796
571.608;   87.179; -181.098; -173.823
571.886;  -30.713; -671.111; -581.799
572.164;  -14.711; -739.121; -621.782
572.443;  -25.620; -562.105; -512.811
572.721;    0.282; -399.117; -289.790
572.999;   -2.901; -280.117; -168.788
573.277;  115.172;  379.894;  620.191
573.555;  430.475;   94.894;   37.190
573.834; 2240.249;  -86.117; -114.788
574.112; 2500.611;  880.893;  811.193
574.390;  768.846; -143.111;  -96.801
574.668;   20.928;  -91.112;  -61.797
574.946;    9.250; -165.106; -187.810
575.224;   16.360;   71.891;  -16.803
575.502;    9.088; -200.116; -204.791
575.780;  -81.171; -767.112; -829.798
576.058;  143.795; 1589.889; 1004.200
576.336;  -11.124; -210.110; -129.801
576.614;  -26.846; -511.112; -340.798
576.891;  151.980; -711.115; -823.794
577.169;  814.400; -158.108; -285.805
577.447;  902.610;  169.893;  202.193
577.725;  358.859;  629.888;  854.201
578.003;   38.182;  -71.112; -371.798
578.280;  155.266; -208.104; -242.812
578.558;  104.653; -450.115; -422.793
578.836;  171.088; -210.114; -145.795
579.114;   89.577; -630.112; -670.797
579.391;   71.801;   -6.117;  -18.789
579.669;  -57.544; -595.114; -704.794
579.947;  284.656; -326.107; -127.806
580.224;  582.306; -692.107; -524.806
580.502;  505.236;  127.893;   76.193
580.779;   35.033;  -42.117;   75.210
581.057;  -58.534; -584.109; -470.804
581.334;  -80.291; -726.102; -695.815
581.612;   45.476;   54.895;  511.190
581.889;  -13.075;  -83.101; -129.818
582.167;  -33.908; -298.099; -190.821
582.444;  -84.906; -845.102; -814.817
582.721;  119.594;  657.899;  715.183
582.999;   99.664; -326.100; -167.821
583.276;  923.394; -812.123; -713.779
583.553; 1198.263; -364.102; -294.816
583.831;  430.687; -607.104; -631.812
584.108;   76.222;  349.892;  174.195
584.385;   49.484; -122.102;  -98.815
584.662;  -17.853; -651.111; -828.801
584.940;   56.896;  204.889;  204.199
585.217;   -9.554;  -73.113; -303.796
585.494;   57.007;   71.890;  118.198
585.771;  330.566; -250.109; -354.804
586.048;  804.671; -196.113;  -76.796
586.325;  538.225; -721.110; -773.801
586.602;  131.242;  230.896;  213.188
586.879;   27.360; -499.100; -580.820
587.156;  109.202; -156.105; -331.810
587.433;   18.541; -701.102; -667.817
587.710;  111.430;  152.888;  234.202
587.987;  458.109; -264.105; -236.811
588.264; 1171.457;  315.888;  387.202
588.541; 1954.170;  -61.104;   26.187
588.818; 4084.919;   72.892;  171.196
589.095; 3452.464; -163.104; -174.812
589.371;  586.414; -459.109; -414.804
589.648;   66.836; -581.107; -437.807
589.925;   94.064; -517.114; -621.795
590.202;   90.629; -741.112; -607.798
590.478;  168.211; -166.105;  -73.811
590.755;  396.326; -241.108; -132.806
591.032; 3816.678; -741.110; -699.802
591.308; 5472.178; -732.094; -790.831
591.585; 2749.877; -573.110; -560.802
591.862;  331.668;-1056.102; -950.817
592.138;  144.124; -475.108; -474.805
592.415;  244.568; -486.104; -495.813
592.691; 2189.565;  460.896;  518.188
592.968; 2925.307; -208.098; -123.824
593.244; 1421.336; -695.116; -595.790
593.521;  129.944; -105.102;  -42.817
593.797;   60.948; -810.122; -720.780
594.074;  551.322; -611.096; -588.826
594.350;  943.761;  828.905;  729.172
594.626;  497.073; -303.111; -283.801
594.903;  235.369; -643.101; -645.817
595.179;  272.822;  243.896;  418.187
595.455;   27.562; -136.107; -150.807
595.731;   17.849;  -19.103;  -38.814
596.008;  -14.934; -464.111; -434.800
596.284;   93.588; -187.100; -242.820
596.560;  154.661; -501.093; -493.833
596.836;  338.780; -173.105;  -70.810
597.112;  598.874; -582.108; -437.805
597.388;  462.170;  -49.097;  -48.826
597.665;  153.724;  437.887;  530.203
597.941;  -22.254; -572.089; -658.839
598.217;   56.682; -323.110; -293.802
598.493;  399.118;   61.891; -204.804
598.769;  842.306; -175.100;  -50.819
599.045;  512.628; -490.108; -562.806
599.321;  121.837; -193.100; -261.820
599.597;  254.393; -355.109; -476.804
599.872;  742.345;  409.896;  429.187
600.148;  604.646;  -61.097; -172.826
600.424;  450.459;   91.893;  202.193
600.700;  404.962; -170.107; -280.807
600.976;  230.164; -442.097; -464.825
601.252;  435.638; -226.109; -272.803
601.527;  419.346; -833.104; -840.813
601.803;  254.936; -453.105; -404.812
602.079;  290.006; -124.100; -118.819
602.354;  899.073; -620.092; -531.835
602.630; 1310.696; -140.113; -482.796
602.906; 3452.325; -910.101; -863.818
603.181;10514.361; -627.119; -534.786
603.457; 8892.319;   98.903; -278.826
603.733; 1327.991; -605.120; -626.783
604.008; 1413.601; -245.106; -164.810
604.284; 4787.071; -636.101; -580.817
604.559; 4150.209;   -3.112;  -42.799
604.835;  780.004; -163.105; -225.810
605.110;  697.068; -732.099; -892.821
605.385; 1062.089;  224.907;  267.167
605.661; 1059.664; -625.095; -729.829
605.936; 1972.578; -664.108; -737.806
606.211; 1605.332;  -17.103; -170.815
606.487;  360.083; -329.114; -376.794
606.762;   95.637; -791.119; -745.786
607.037;   27.855; -501.105; -433.810
607.313;  -15.869; -589.096; -574.828
607.588;   31.575; -375.106; -137.810
607.863;   79.275;  -28.101; -143.818
608.138;  266.305;  513.890;  516.198
608.413;  118.198; -576.099; -592.822
608.688;  119.299; -203.108; -267.805
608.964;  358.493; -509.106; -218.809
609.239;  441.051; -107.105; -212.810
609.514;  369.536;  281.895;  240.188
609.789; 1052.216; -187.104; -716.812
610.064; 1393.029; -435.096; -609.827
610.339; 1439.889; -855.109; -799.804
610.614; 1974.862; -131.100; -315.820
610.889; 1071.536;  215.895;  107.188
611.163;  115.162; -407.104; -591.812
611.438;  157.310;   81.886; -167.794
611.713;   56.621; -467.101; -499.817
611.988;  121.673; -144.101; -328.818
612.263;   34.659; -771.102; -717.815
612.538;  310.470;  385.887;  251.204
612.812;  357.314; -832.100; -911.820
613.087;  257.504; -358.098; -338.823
613.362;  -20.088; -497.107; -557.807
613.637;   67.802;  261.897;  138.186
613.911;   17.999; -256.092; -345.835
614.186;  233.085; -249.107; -292.807
614.460; 1161.337; -842.081; -758.854
614.735; 1300.925;  -55.087;  -17.843
615.010;  255.412;   43.912;  -82.841
615.284;  355.123;  360.892;  246.195
615.559;  653.322; -792.092; -955.835
615.833;  475.546;  -76.099;  -87.822
616.108;   36.361; -225.090; -390.837
616.382;  208.376;  274.913;  402.156
616.656;  272.137; -241.090; -232.837
616.931;  825.096; -785.099; -700.822
617.205; 1706.171; -973.104; -979.813
617.480; 1536.469;  -91.125;    6.225
617.754;  300.516; -396.125; -128.774
618.028;   75.155; -369.129; -382.768
618.302;  116.471;   73.892;  -25.805
618.577;  -16.321; -371.103; -518.815
618.851;  -45.290; -399.109; -600.803
619.125;  -29.674; -335.134; -378.759
619.399;  -27.428; -244.104; -374.813
619.673;  -14.655; -330.115; -515.792
619.947;  -38.037; -333.114; -448.795
620.222;   18.149; -198.110; -204.801
620.496;   21.814;  -47.121;  -96.782
620.770;   43.129; -187.122;  -93.781
621.044;  304.652;  323.895;  346.190
621.318; 1161.392; -653.120; -614.783
621.592; 1077.865; -430.121; -409.783
621.866;  637.610; -476.112; -572.799
622.140;   72.613; -207.116; -356.791
622.413;   93.465;  138.889;  112.200
622.687;   -8.779; -746.101; -492.817
622.961;   51.072; -130.108; -143.805
623.235;  -32.858; -633.111; -661.800
623.509;  -78.264; -816.105; -848.811
623.783;   22.107;  -12.107;   48.193
624.056;    2.768; -254.120; -280.783
624.330;   66.978;   63.888;   -3.797
624.604;  107.534; -271.116; -355.790
624.877;  121.979;  180.890;   26.198
625.151;  102.007; -249.114; -238.794
625.425;  -28.301; -150.103; -283.814
625.698;  -43.920; -367.119; -374.785
625.972;  -76.193; -799.110; -765.802
626.245;   88.661;  685.884;  484.210
626.519;  -44.302; -426.120; -340.784
626.792;  -20.639; -192.107; -380.807
627.066;  -84.855; -485.122; -662.779
627.339;  -78.498; -736.110; -663.802
627.613;   56.347;  351.880;  148.216
627.886;   83.309;  187.891; -612.803
628.160;   -9.658;  312.880; -161.783
628.433;  -82.628; -695.125; -703.775
628.706;  -65.477; -517.120; -615.784
628.979;   47.755;  296.876;  117.223
629.253;  -61.939; -785.119; -833.786
629.526;  618.054; -334.126; -253.772
629.799;  640.714; -641.123; -479.778
630.072;  339.257; -497.128; -516.769
630.346;   -4.564;-1115.116;-1080.790
630.619;  736.938; -467.107; -545.808
630.892;  939.917;  709.889;  593.200
631.165;  480.696;  790.896;  679.187
631.438;  -23.368;-1092.112;-1055.798
631.711;   51.743;  453.877;  257.221
631.984;  -32.345; -523.117; -624.789
632.257;  -34.549; -636.117; -681.789
632.530;  -32.395; -412.119; -433.785
632.803;   42.654; -109.115;    7.207
633.076;  -71.215; -360.123; -422.777
633.349;   26.487;  173.872;  121.231
633.622;  -44.196; -187.119; -240.785
633.895; -106.707; -903.120; -823.783
634.167;  -63.744; -496.126; -525.773
634.440;    8.394;  -19.116; -137.792
634.713;   -0.791;  -22.119; -120.786
634.986;   87.625;  593.871;  453.233
635.258;  -65.998; -507.115; -597.793
635.531;  103.846;  742.882; -343.788
635.804;  -36.646; -303.117; -318.789
636.077;  -80.536; -830.116; -852.791
636.349;   42.750; -586.115; -474.793
636.622;  451.603; 1695.874; 1392.228
636.894;  423.349; -474.120; -909.784
637.167;  303.470; -836.127; -789.771
637.439;   75.241; -278.128; -213.770
637.712;  -27.545; -312.126; -293.772
637.984;  -66.635; -635.116; -707.791
638.257;  512.810;  515.877;  488.222
638.529;  895.598; -881.125; -924.776
638.802;  408.957; -508.128; -449.769
639.074;  -91.547; -927.122; -952.781
639.346;  -90.709; -942.135; -930.757
639.619;   -0.863;  -79.142; -319.744
639.891;    2.420;  -83.122; -168.779
640.163;  -75.953; -689.122; -756.780
640.435;   58.099;  273.878;  103.220
640.708;   13.052;  -72.122; -132.780
640.980;    8.654; -366.122; -362.781
641.252;  238.706;  -25.121;  -71.781
641.524; 2470.633;  580.879;  573.219
641.796; 2704.711;-1094.121; -907.782
642.068;  502.488; -191.121; -300.782
642.340;  -49.860; -486.121; -566.783
642.613;   41.967;  294.880;  323.217
642.885;  -85.806; -787.120; -878.783
643.157;   -2.228; -810.120; -658.784
643.428;   64.074;  170.880;  218.216
643.700;  -53.399; -498.120; -425.784
643.972;  -41.497;  -16.119; -133.785
644.244;  -81.744; -474.119; -559.785
644.516;  -43.742; -250.119; -114.786
644.788;   64.760;  662.881;  548.214
645.060;  -34.838;  -12.119; -124.786
645.332;  -81.111; -525.118; -535.787
645.603;   31.167;  479.882;  342.213
645.875;  -72.831; -334.118; -369.787
646.147;  137.271; 1487.882; 1242.212
646.418;   -8.202; -931.117; -918.788
646.690;  313.425; -714.117; -715.789
646.962;  108.403; -413.117; -451.789
647.233;   -6.195;   15.883;   11.211
647.505;  -94.968; -595.117; -475.790
647.776;   19.959;  328.884;  229.210
648.048;   27.787; -248.116; -418.790
648.320;  -59.686; -752.116; -679.791
648.591; -129.184;-1055.116; -958.791
648.862;  -91.982; -505.116; -577.792
649.134;   31.295;  115.885;  198.208
649.405;  -18.077; -661.115; -618.792
649.677;  -26.575; -475.115; -598.793
649.948;   24.302; -181.115; -296.793
650.219;   -2.046;  -37.115; -147.793
650.491;  -88.169; -431.114; -520.794
650.762; -118.916; -705.114; -731.794
651.033;  -95.014; -437.114; -424.795
651.304;  -59.087; -743.114; -728.795
651.576;  -52.560; -680.114; -645.795
651.847;  -31.757; -250.113; -140.796
652.118;  -23.330;  -32.113; -189.796
652.389;  -97.428; -639.113; -722.796
652.660;  -27.051; -147.113;  -89.797
652.931; -124.474; -897.112; -871.797
653.202;  -92.296; -382.112; -541.798
653.473;  -48.894; -633.112; -533.798
653.744;  286.608; -595.112; -590.798
654.015;  267.335; -356.112; -303.799
654.286;  -36.213; -642.111; -663.799
654.557;  -17.285; -586.111; -521.799
654.828; -145.108;-1114.111;-1088.800
655.099;  -73.756; -404.111; -291.800
655.370; -102.729; -427.111; -543.801
655.641; -113.826; -656.110; -714.801
655.911; -120.524; -618.110; -638.801
656.182;   41.803;  437.890;  387.198
656.453;   76.630;  830.890;  746.198
656.724;  -57.543; -466.110; -426.802
656.994;  -67.390; -553.109; -568.803
657.265;  -83.538; -862.109; -873.803
657.536;  -86.661; -500.109; -377.804
657.806;  -94.009; -561.109; -593.804
658.077; -133.157; -866.109; -950.804
658.347;  -73.279; -523.108; -598.805
658.618; -111.702; -646.108; -694.805
658.888;  -19.050;  -41.108;  112.195
659.159;  -76.773; -432.108; -548.806
659.429;   11.155; -292.108; -349.806
659.700;   63.982; -435.107; -390.807
659.970;   29.534; -370.107; -359.807
660.241;   85.136; -754.107; -921.807
660.511;  806.263; -147.107; -174.808
660.781;  217.166; -793.106; -748.808
661.052;  -30.832; -222.106; -381.808
661.322;  -24.080;   21.894;   -9.809
661.592;    6.547;  257.894;  148.191
661.862;  -88.800; -369.106; -382.810
662.133;  -88.898; -551.105; -502.810
662.403; -112.221; -770.105; -676.810
662.673;  -45.844; -256.105; -213.811
662.943;  -96.967; -612.105; -551.811
663.213;   20.211;  -85.105;  -81.811
663.483;  -76.637; -593.104; -568.812
663.753;  -41.185; -194.104; -152.812
664.023;  -10.733;   68.896;  -32.813
664.293;  -53.781; -319.104; -126.813
664.563; -109.753; -694.104; -648.813
664.833; -102.251; -743.103; -608.814
665.103; -126.599; -730.103; -793.814
665.373; -101.097; -766.103; -806.814
665.643;  -30.819; -863.103; -918.815
665.913;  110.008; -534.103; -714.815
666.182;  260.835; -685.102; -719.816
666.452;  427.487;  -22.102;  -89.816
666.722;   26.089; -724.102; -784.816
666.992;  -95.758; -948.102; -921.817
667.261;  -77.681; -824.102; -808.817
667.531;  284.996;  134.899;   45.183
667.801;  862.198; -440.101; -412.818
668.070;  318.400;  714.899;  697.182
668.340;  -69.597; -883.101; -840.819
668.609;  124.080;  588.900;  301.181
668.879;  -69.093; -490.100; -558.819
669.149;  -66.541; -539.100; -516.820
669.418;  -93.213; -698.100; -726.820
669.688;    6.964; -482.100; -666.820
669.957;  179.741; -423.099; -546.821
670.226;  -11.107; -268.099; -331.821
670.496;  -87.580; -431.099; -635.822
670.765;  -65.177; -418.099; -501.822
671.034; -140.825; -872.099; -828.822
671.304;   -3.398;   55.902; -111.823
671.573; -136.221;-1085.098; -957.823
671.842;  165.106; -380.098; -294.823
672.112;  111.484; -692.098; -586.824
672.381;   40.061; -239.098; -214.824
672.650; -112.162;-1005.097;-1021.825
672.919;  -77.085; -631.097; -507.825
673.188;  -76.307; -681.097; -878.825
673.457; -119.430;-1101.097;-1143.826
673.726;  -63.178; -579.096; -646.826
673.995;  -13.251; -533.096; -479.826
674.265;   12.576; -263.096; -333.827
674.534;   52.904; -183.096; -235.827
674.802;   65.181; -618.096; -703.828
675.071; 1431.933; -886.095; -801.828
675.340; 6203.835; -464.095; -339.828
675.609; 2038.538;  103.905;   82.171
675.878;  200.965; -949.095; -893.829
676.147;   65.092;  -26.095;   -8.829
676.416;  136.394; -210.094; -294.830
676.685; 1059.471; 1000.906; -622.830
676.953;  231.574; -603.094; -452.831
677.222;  -11.924; -193.094; -273.831
677.491;  -12.847;  -24.094; -127.831
677.759;   -7.520;   11.907;  172.168
678.028;    1.932; -279.093; -222.832
678.297;   16.535;   71.907;  197.168
678.565; -132.263; -898.093; -944.833
678.834;  -44.361; -311.093; -268.833
679.102;  -63.359; -411.092; -391.834
679.371; -116.256; -898.092; -727.834
679.639; -127.629; -797.092; -786.834
679.908; -113.227; -794.092; -724.835
680.176; -143.775; -895.091; -941.835
680.445;  -65.398; -346.091; -352.835
680.713;   -2.795;  -58.091;  -23.836
680.982;  -81.718; -523.091; -525.836
681.250;  -98.641; -578.091; -507.837
681.518;  -86.114; -534.090; -751.837
681.787;   -2.437; -204.090; -167.837
682.055;  -44.809; -490.090; -422.838
682.323; -117.207; -993.090; -992.838
682.591;   60.845; -216.090; -538.838
682.859;  148.522;    9.911;  -35.839
683.128;   25.725;  232.911;  497.161
683.396; -147.473;-1102.089;-1122.840
683.664;  -24.196; -241.089;   21.160
683.932;   -1.494;  144.911;  -76.840
684.200;  -63.967; -576.088; -320.841
684.468;  -21.189;  -73.088; -124.841
684.736;  -25.637; -214.088; -175.841
685.004; -103.135;-1024.088; -982.842
685.272;    5.367; -880.088; -774.842
685.540;  -31.006; -499.087; -557.843
685.808;  -60.703; -651.087; -682.843
686.076;  -77.351; -894.087; -969.843
686.343;  -20.049; -601.087; -815.844
686.611;   68.403; -195.087; -224.844
686.879;  643.331; -530.086; -553.844
687.147; 4985.383; -483.086; -480.845
687.414; 1477.960;  -12.086; -169.845
687.682;   78.162; -658.086; -757.846
687.950;  474.814;  259.915;  263.154
688.217;   93.792; -792.085; -760.846
688.485;   44.669; -632.085; -636.847
688.753;  845.521;  -11.085; -102.847
689.020;  356.573; -820.085; -851.847
689.288;  -62.275; -853.084; -787.848
689.555;  -12.372; -195.084; -148.848
689.823;  -36.970; -241.084; -345.849
690.090;  -64.243; -546.084; -651.849
690.358; -139.291; -877.084; -897.849
690.625;   24.912;  120.917;   45.150
690.892;  -64.061; -403.083; -369.850
691.160;    8.716;   72.917;  -35.850
691.427;   -0.707;  141.917;  130.149
691.694; -112.655; -855.083; -929.851
691.962; -126.552;-1177.082;-1060.852
692.229;   32.825;  127.918;   56.148
692.496;  110.527;  130.918;  -49.852
692.763;   43.454; -164.082; -201.853
693.031;  -43.743; -739.082; -716.853
693.298;   -3.866; -509.081; -368.853
693.565;  408.261; -155.081; -163.854
693.832; 1996.063;   -5.081;   -9.854
694.099;  287.865; -643.081; -642.855
694.366;  -20.157; -882.081; -896.855
694.633;  -33.355; -920.080; -633.855
694.900;  754.022; 4367.920; -114.856
695.167;  645.149; -214.080; -380.856
695.434;  182.551; -646.080; -623.856
695.701;  246.854;  121.921;  -61.857
695.968;  697.881; -365.079; -361.857
696.234; 1180.733; -415.079; -646.858
696.501;12281.485; -776.079; -614.858
696.768; 6849.938; -554.079; -617.858
697.035;  431.115; -632.078; -667.859
697.302;   83.592; -448.078; -552.859
697.568;   47.169; -458.078; -497.859
697.835;  -10.204; -683.078; -624.860
698.102;  -13.901; -498.078; -407.860
698.368;   79.451;  384.923;  396.139
698.635;  -21.622;  -47.077; -424.861
698.901;   -3.445; -240.077; -348.861
699.168;  142.732; -534.077; -456.862
699.435;  132.935;  -72.077;  -13.862
699.701;  -87.213; -868.076; -764.862
699.968;   21.014;  144.924; -441.863
700.234;  -81.184; -783.076; -822.863
700.500;  -49.581; -448.076; -539.864
700.767;   15.596;   -1.075;   26.136
701.033; -109.652;-1015.075; -963.864
701.299;  -36.300; -450.075; -483.865
701.566;  117.777;  950.925;  763.135
701.832;   46.480;  -31.075;  -76.865
702.098;  -71.868;-1054.074;-1034.866
702.365;  -43.216;-1098.074;-1030.866
702.631;   38.961;-1038.074;-1063.867
702.897; 1792.588; -765.074; -676.867
703.163; 3338.866;  348.926;  254.133
703.429;  259.643; -256.073; -273.868
703.695;   -5.155; -796.073; -792.868
703.961;   61.172; -214.073; -210.868
704.227;  -30.950; -630.073; -725.869
704.493;  162.002;  613.927;  510.131
704.759;    4.829; -565.072; -540.870
705.025;   53.306; -203.072; -194.870
705.291;   14.333; -666.072; -562.870
705.557;  219.061;  719.928;   34.129
705.823;   82.513; -742.072; -694.871
706.089;  189.065; -307.071; -326.871
706.355;  419.817; -315.071; -244.872
706.620; 6252.570; -776.071; -729.872
706.886;10249.722; -309.071; -362.873
707.152; 1086.274; -818.070; -973.873
707.418;   43.876;-1153.070;-1186.873
707.683;   58.578; -550.070; -530.874
707.949;  -19.919; -547.070; -578.874
708.215;   12.008; -129.070; -207.874
708.480;    4.435; -520.069; -420.875
708.746;  156.962;   68.931;   28.125
709.011;  -47.411; -578.069; -612.876
709.277;  -50.158; -538.069; -543.876
709.542;  -32.481; -428.069; -387.876
709.808;   14.171;  -59.068;   89.123
710.073;  -71.427; -577.068; -695.877
710.339;   -4.774; -242.068; -228.877
710.604;  126.228; -780.068; -845.878
710.869;  528.230; -277.068; -366.878
711.135;  -56.693; -715.067; -628.879
711.400;  -57.291; -507.067; -608.879
711.665;  -55.263; -404.067; -479.879
711.931;  -79.386; -661.067; -677.880
712.196; -101.259; -876.067; -954.880
712.461;  190.893; -402.066; -490.880
712.726;  315.245; -727.066; -771.881
712.991;  -59.302; -647.066; -664.881
713.256;  -36.650; -350.066; -332.882
713.521;  -43.348; -417.065; -381.882
713.787;  -49.346; -454.065; -472.882
714.052;    2.532; -214.065; -400.883
714.317;  -69.341;-1045.065; -981.883
714.581; 1291.236; -374.065; -268.883
714.846; 2074.638; -822.064; -888.884
715.111;  182.165;  261.936;  257.116
715.376;  -13.332;  -86.064; -223.885
715.641;   10.745; -365.064; -367.885
715.906;  478.297;   15.936; -551.885
716.171;  189.674;  221.937;  209.114
716.436;   67.476;  -78.063; -104.886
716.700;  -91.521; -818.063; -692.886
716.965; -117.494; -794.063; -807.887
717.230;  -54.742; -339.063; -392.887
717.494;  -28.165;  -40.062; -134.888
717.759;  -64.712; -784.062; -640.888
718.024;    0.665;  269.938;  250.112
718.288;   75.292;  685.938;  395.111
718.553; -141.831; -803.062; -977.889
718.817; -136.954; -883.061; -899.889
719.082;  -25.051; -115.061; -125.890
719.346; -124.099;-1000.061; -947.890
719.611;  -44.647; -300.061; -255.891
719.875;  -82.320; -568.060; -537.891
720.140;  -45.343; -453.060; -603.891
720.404;   63.735; -136.060; -249.892
720.668; 1282.812; -475.060; -411.892
720.933;  553.114;  146.940;  137.108
721.197;  -80.859; -667.059; -600.893
721.461; -108.931; -851.059; -826.893
721.725;   -1.404;  -21.059; -250.894
721.990;  -43.777; -284.059; -204.894
722.254;  -31.750;  -26.059; -108.894
722.518;  -63.548; -286.058; -442.895
722.782;  -84.995; -743.058; -594.895
723.046;  139.307;  614.942;  570.105
723.310;   31.384;  374.942;  210.104
723.574;  -91.439; -654.058; -614.896
723.838; -100.111; -576.057; -642.897
724.102;  -32.559; -226.057; -239.897
724.366; -127.782;-1032.057; -978.897
724.630;  -79.380; -749.057; -571.898
724.894;  -67.303; -722.057; -514.898
725.158;   -1.625;   38.944; -295.898
725.422;  -46.848; -394.056; -327.899
725.685;  -52.071; -441.056; -349.899
725.949;  -57.294; -566.056; -519.900
726.213;  -41.467; -732.056; -811.900
726.477;  317.086;-1020.055; -933.900
726.740;  276.463; -274.055; -104.901
727.004;  443.965; -384.055; -510.901
727.268; 4347.267; -442.055; -400.901
727.531; 1458.845; -961.055; -775.902
727.795;    0.397; -713.054; -673.902
728.059;  -47.901; -552.054; -557.903
728.322;  -42.624; -841.054; -669.903
728.586;   90.903; -692.054; -701.903
728.849;  -50.819; -695.053; -756.904
729.112; -109.192; -812.053; -912.904
729.376; -101.915; -959.053; -905.904
729.639;  -60.538; -536.053; -536.905
729.903;  -87.911; -733.053; -699.905
730.166;  -36.758; -437.052; -399.906
730.429;   -5.331; -317.052; -468.906
730.693;  -55.854; -355.052; -894.906
730.956;  239.898;  810.948;  651.093
731.219; 1083.376; -310.052; -103.907
731.482;  236.178;-1003.051; -894.907
731.745;  255.130; -794.051; -935.908
732.009;   37.732;  -30.051;   50.092
732.272;  -78.091; -904.051; -771.909
732.535;  -19.638; -300.051; -310.909
732.798; -134.961;-1083.050;-1166.909
733.061;  -36.309; -430.050; -456.910
733.324;   24.143;   31.950; -180.910
733.587;   76.145;  290.950;  365.090
733.850;  -49.302; -973.049;-1050.911
734.113;   58.450;   33.951;   32.089
734.376;   31.477; -328.049; -447.912
734.639;  265.054; 1188.951; 1011.088
734.901;  130.457; -180.049; -402.912
735.164;  732.659; -883.048; -837.913
735.427; 2061.961; -166.048; -355.913
735.690;  219.563; -205.048; -234.913
735.952;   18.040; -923.048; -925.914
736.215;   51.043;-1113.048;-1009.914
736.478;  115.595; -771.047; -774.915
736.740;  303.697;   33.953;  129.085
737.003;  895.849; -658.047; -672.915
737.266; 6137.627;  -94.047;   46.084
737.528;  716.129; -682.047; -660.916
737.791;  476.956; -316.046; -327.916
738.053;  975.433;  465.954;  649.083
738.316;13193.185; -162.046; -136.917
738.578;11262.613; -770.046; -736.918
738.841;  675.290; -382.046; -446.918
739.103;  287.992; -875.045; -777.918
739.365;  774.769;   79.955;  -69.919
739.628;   70.521; -884.045; -805.919
739.890;   10.024; -758.045; -710.919
740.152;   -0.949; -692.044; -754.920
740.414;   21.128; -408.044; -359.920
740.677;   -6.770; -785.044; -634.921
740.939;    1.608; -587.044; -487.921
741.201;  428.735; -432.044; -572.921
741.463;  153.587; -689.043; -745.922
741.725;   37.964;  -21.043; -199.922
741.987;   71.916;  220.957;  116.078
742.249;   73.969; -751.043; -859.923
742.511;  390.196; -703.043; -794.923
742.773;   93.348; -546.042; -546.924
743.035;  163.475;  796.958;  533.076
743.297;    9.727; -963.042;-1013.924
743.559; 1068.505; -278.042; -262.925
743.821;  192.057; -735.042; -744.925
744.083;   46.709;  -44.041; -149.925
744.345;  -46.039; -869.041; -892.926
744.607;   75.464;   75.959;  122.074
744.868;  -28.034; -490.041; -554.927
745.130;  -69.182; -994.041;-1008.927
745.392;   75.545;   -1.040;  -44.927
745.653;   28.997; -411.040; -378.928
745.915;  167.050;  896.960;  631.072
746.177;  124.277;   35.960;  -43.928
746.438;   45.379; -428.040; -543.929
746.700;   24.131; -947.039; -988.929
746.961;   70.533; -659.039; -740.930
747.223;  221.036; -190.039;  -74.930
747.484;  170.238; -391.039; -471.930
747.746;  234.815;  -23.038; -106.931
748.007;  225.817; -647.038; -689.931
748.269;  463.220; -468.038; -440.931
748.530;  817.122; -852.038; -638.932
748.791;  433.999; -354.038; -420.932
749.053;  624.276;  286.963;  163.067
749.314;  683.353; -236.037; -169.933
749.575;  809.581; -945.037; -905.933
749.836; 1236.233; -217.037;   86.066
750.098; 3089.660;  -60.037;  -21.934
750.359;50110.712;  414.964;  555.066
750.620;15727.464; -121.036; -220.935
750.881; 1549.517; -585.036; -513.935
751.142; 1980.194; -950.036; -938.936
751.403;21279.646; -789.036; -705.936
751.664;11715.298;-1034.035; -999.936
751.925;  750.501; -175.035; -262.937
752.186;  419.703; -298.035; -278.937
752.447;  242.505; -590.035; -445.937
752.708;  131.782; -532.035; -648.938
752.969;   71.384; -566.034; -576.938
753.230;   50.137; -777.034; -672.939
753.491;   61.714; -650.034; -631.939
753.751;  117.666;  109.966;   19.061
754.012;  136.618;  258.967;  181.060
754.273;  102.246; -174.033;  -71.940
754.534;   82.023; -487.033; -580.940
754.794;  -36.000; -926.033; -911.941
755.055;  162.427; 1051.967;  881.059
755.316;   -7.971; -700.032; -566.942
755.576;    4.057; -606.032; -576.942
755.837;  -13.541; -527.032; -695.942
756.097;   -1.914; -530.032; -564.943
756.358;  -41.862; -725.032; -770.943
756.618;  -20.435; -705.031; -641.943
756.879;   28.293; -254.031; -349.944
757.139;  -86.105;-1098.031;-1116.944
757.400;  -28.153; -538.031; -553.945
757.660;   10.024; -365.031; -401.945
757.920;   50.477; -266.030; -228.945
758.181;   16.979; -468.030; -351.946
758.441;  -55.544; -870.030; -809.946
758.701;   -2.592; -308.030; -215.946
758.961;   -5.790; -220.030; -278.947
759.222;  -31.037; -574.029; -502.947
759.482;  -62.935; -683.029; -723.948
759.742;  -56.283; -706.029; -547.948
760.002;   24.469;  -83.029; -143.948
760.262;   34.496;   50.972;  182.051
760.522;  -19.576; -498.028; -574.949
760.782;  -43.374; -738.028; -612.949
761.042;  -17.297; -618.028; -573.950
761.302;   70.855;   55.972;  -18.950
761.562;   57.033; -164.027; -154.951
761.822;  161.260; -710.027; -551.951
762.082;  -18.313;-1104.027;-1093.951
762.342;   63.214; -328.027; -403.952
762.601;   93.566; -567.027; -506.952
762.861;  459.769; -281.026; -207.952
763.121;  405.146; -406.026; -411.953
763.381; 6419.098; -499.026; -485.953
763.640; 9052.250; -139.026; -307.954
763.900;  389.752; -242.026; -203.954
764.160;   80.355; -458.025; -491.954
764.419;   -0.093; -726.025; -782.955
764.679;  -58.791; -795.025; -726.955
764.939;   -5.064; -124.025; -210.955
765.198;  -64.161; -608.025; -563.956
765.458;  -70.659; -710.024; -612.956
765.717;  -81.207; -454.024; -590.957
765.976;  -53.830; -428.024; -411.957
766.236;  -57.753; -475.024; -610.957
766.495;   25.850;  260.977;   73.042
766.755;  -52.448;-1090.023; -987.958
767.014;   63.029; -594.023; -665.958
767.273;  -44.844; -373.023; -397.959
767.533;  -36.841; -228.023; -307.959
767.792;  -17.314; -151.022; -188.960
768.051;  -27.012; -228.022; -276.960
768.310;  -84.535; -546.022; -650.960
768.569;   -2.008; -161.022;    4.039
768.828;  -41.205; -285.022; -363.961
769.088;  -79.553;-1050.021; -942.961
769.347;  -82.401; -755.021; -599.962
769.606;  -90.674; -876.021; -857.962
769.865;  -98.822;-1016.021;-1033.963
770.124;    8.681; -411.021; -336.963
770.383;  -31.017; -778.020; -910.963
770.641;   28.010; -398.020; -400.964
770.900;  -55.638; -953.020; -846.964
771.159;  -10.435; -851.020; -951.964
771.418;   18.942; -917.020; -779.965
771.677;  143.219; -224.019; -293.965
771.936;  177.196; -794.019; -865.966
772.194; 2003.998; -465.019; -437.966
772.453;13165.576; -213.019; -391.966
772.712; 1035.978;  416.982;  329.033
772.970;  152.805;   32.982;   63.033
773.229;  111.207;  -22.018;  102.033
773.488;  -76.341; -814.018; -770.968
773.746;   60.687;  296.982;  335.032
774.005;   11.214;  190.983;  -22.969
774.263;   21.366;  243.983;  177.031
774.522;  -52.182; -422.017; -548.969
774.780;  -85.704; -484.017; -417.970
775.039;  -99.577; -551.017; -531.970
775.297;  -18.750; -135.016; -351.970
775.555;  -99.198; -489.016; -612.971
775.814; -113.796; -618.016; -570.971
776.072; -126.118; -749.016; -740.971
776.330;  -91.891; -630.016; -520.972
776.589; -112.689; -703.015; -721.972
776.847; -106.637; -645.015; -624.973
777.105; -142.585;-1016.015;-1032.973
777.363;  -95.757; -459.015; -454.973
777.621; -128.280; -660.015; -717.974
777.879;  -17.353;  -42.014;   32.026
778.138;  -97.501; -554.014; -717.974
778.396;  -92.873; -585.014; -526.975
778.654; -152.846;-1015.014; -970.975
778.912;  -57.869; -269.014; -371.976
779.170; -135.817; -880.013; -803.976
779.427; -133.565; -922.013; -897.976
779.685; -122.437; -880.013; -832.977
779.943;  -56.985; -654.013; -593.977
780.201; -152.508; -964.012; -883.978
780.459; -101.106; -651.012; -610.978
780.717;  -91.679; -440.012; -390.978
780.974;  -97.351; -449.012; -490.979
781.232;  -76.774; -358.012; -338.979
781.490;  -41.347; -551.011; -472.979
781.747;  -97.845; -555.011; -476.980
782.005;   10.583;  462.989;  254.020
782.263; -164.565; -542.011;-1004.981
782.520;  -61.788; -326.011; -501.981
782.778; -175.561;-1013.010;-1051.981
783.035; -155.834; -962.010; -938.982
783.293;  -56.606; -248.010; -206.982
783.550;  -53.829; -134.010; -198.982
783.808; -129.202; -764.010; -776.983
784.065; -143.050; -745.009; -874.983
784.322;  -56.447;   25.991;  -86.984
784.580; -128.870; -915.009; -771.984
784.837;  -96.943; -392.009; -466.984
785.094; -121.466; -783.009; -762.985
785.352;  -57.214; -304.008; -404.985
785.609;  -78.161; -934.008; -839.985
785.866;  -85.684; -345.008; -401.986
786.123;  -28.657; -639.008; -583.986
786.380;  -94.830; -665.008; -604.987
786.637;  -38.928; -225.007; -380.987
786.895;   39.200; -456.007; -543.987
787.152;  -35.648; -135.007; -267.988
787.409;  -42.471; -123.007; -225.988
787.666;  -74.419; -299.006; -378.988
787.923;  -90.841; -616.006; -695.989
788.179;  -93.214; -551.006; -584.989
788.436; -100.262; -585.006; -585.990
788.693;  -30.035;  -92.006;  -87.990
788.950;  193.617; -125.005; -112.990
789.207;  434.220; -381.005; -372.991
789.464;  -54.278; -161.005; -301.991
789.720;   -9.201;  150.995;  110.009
789.977; -171.824;-1003.005; -671.992
790.234;  -25.122;   44.996;  -66.992
790.490; -143.644; -884.004;-1031.993
790.747;  -12.017;  -85.004;   22.007
791.004;    7.510; -426.004; -348.993
791.260;  -78.263; -430.004; -560.994
791.517;  -82.560; -843.003; -788.994
791.773;  -27.333; -379.003; -342.994
792.030; -104.056; -596.003; -660.995
792.286;  -78.029; -686.003; -636.995
792.543;  -24.577;  -74.002; -159.995
792.799;  -40.099; -584.002; -382.996
793.055; -138.972;-1179.002;-1210.996
793.312;  -78.045; -827.002; -816.997
793.568;  -54.118; -746.002; -599.997
793.824;   31.634; -226.001; -284.997
794.081;   27.537; -447.001; -508.998
794.337;   83.939; -664.001; -561.998
794.593; 1042.866; -319.001; -271.999
794.849; 7354.218; -746.001; -772.999
795.105;  482.396; -270.000; -261.999
795.361;   28.373; -490.000; -457.000
795.617;  -42.100; -875.000; -945.000
795.873;  -37.600; -360.000; -407.000
796.129;  -20.800; -368.000; -306.000
796.385;  -17.750; -124.000; -156.000
796.641;   56.575;  412.000;  550.000
796.897;  -61.875; -666.000; -635.000
797.153;   63.800;  453.000;  357.000
797.409;  -81.600; -785.000; -868.000
797.665;  -74.450; -625.000; -732.000
797.921;  -68.325; -775.000; -762.000
798.176;  -37.000; -744.000; -747.000
798.432;  -13.900; -824.000; -596.000
798.688;  -29.700;-1174.000;-1078.000
798.943;  107.125; -165.000; -147.000
799.199;   41.825;-1005.000; -959.000
799.455;  273.100;  369.000;  316.000
799.710;  198.775; -813.000; -380.000
799.966;  397.700; -162.000; -160.000
800.221;  576.225; -638.000; -721.000
800.477;11429.825; -743.000; -710.000
800.732;13675.300; -773.000; -800.000
800.988;  815.100;  205.000;  -19.000
801.243; 1459.525; -454.000; -344.000
801.498; 8244.400; -814.000; -739.000
801.754;  586.975; -289.000; -163.000
802.009;  107.350; -257.000; -335.000
802.264;  -13.075; -967.000;-1033.000
802.520;   41.225;  222.000;   -3.000
802.775;  -32.350; -524.000; -359.000
803.030;   55.675;  395.000;  356.000
803.285; -110.725; -840.000; -903.000
803.540;  -49.675; -686.000; -699.000
803.795;  -15.700; -648.000; -583.000
804.051;  -29.300; -279.000; -346.000
804.306;   17.675;  168.000;  128.000
804.561;  195.925;  451.000;  362.000
804.816;  138.675;  714.000;  861.000
805.071;   14.550; -185.000; -280.000
805.325;  340.400; -257.000; -427.000
805.580;  -78.525; -841.000; -877.000
805.835;  -24.075; -204.000; -297.000
806.090;  -63.400; -760.000; -676.000
806.345;   -3.250; -344.000; -264.000
806.600;    0.075; -549.000; -632.000
806.854;   -8.700; -408.000; -538.000
807.109;   16.000; -493.000; -577.000
807.364;    4.425; -407.000; -328.000
807.618;   16.875; -415.000; -381.000
807.873;   86.175; -470.000; -494.000
808.128;  143.950; -257.000; -518.000
808.382;  158.650; -224.000; -332.000
808.637;  103.550; -440.000; -511.000
808.891;  229.500; -257.000; -180.000
809.146;  148.125; -902.000; -794.000
809.400;  340.075; -848.000; -923.000
809.654;  439.375; -779.000; -551.000
809.909;  592.750; -841.000; -927.000
810.163; 6685.675; -813.000; -651.000
810.418;23828.275; -940.000; -861.000
810.672; 1479.175; -685.000; -690.000
810.926;  745.525; -993.000; -973.000
811.180; 1278.800; -439.000; -372.000
811.434;27057.675;  240.000;  135.000
811.689;15144.300; -231.000; -365.000
811.943;  779.525; -936.000; -953.000
812.197;  355.750; -893.000; -671.000
812.451;  138.850; -379.000; -514.000
812.705;  -15.700; -809.000; -619.000
812.959;    2.150; -263.000; -388.000
813.213;   -1.425; -283.000; -209.000
813.467;   73.475;  470.000;  253.000
813.721;  -91.875; -764.000; -792.000
813.975; -114.275; -826.000; -877.000
814.229;   49.325;  430.000;  353.000
814.482;  -52.250; -517.000; -566.000
814.736;  -95.275; -766.000; -744.000
814.990; -128.175; -779.000; -872.000
815.244;  -35.675; -228.000; -285.000
815.497;  -84.375; -636.000; -601.000
815.751;  -11.550; -141.000;   82.000
816.005;  -91.100; -470.000; -586.000
816.258;  -59.625; -510.000; -363.000
816.512;  -90.700; -693.000; -610.000
816.766;    9.675;  121.000;  157.000
817.019;   19.950;  148.000;  149.000
817.273;  -89.925;-1000.000; -802.000
817.526;  -21.825; -206.000; -173.000
817.779;    9.725;-1049.000; -960.000
818.033;  -13.850; -693.000; -807.000
818.286; -114.075; -725.000; -792.000
818.540;  -77.350; -403.000; -403.000
818.793;  -74.075; -402.000; -489.000
819.046;  -88.025; -582.000; -520.000
819.299;  -48.275; -157.000; -166.000
819.553; -104.150; -552.000; -592.000
819.806; -150.850;-1016.000; -838.000
820.059;  -71.325; -334.000; -354.000
820.312;   30.450;  152.000;  185.000
820.565;   -6.050;  110.000;  -27.000
820.818;  -40.775;  -59.000; -173.000
821.071; -160.300;-1041.000; -957.000
821.324; -104.175; -536.000; -540.000
821.577;  -97.775; -457.000; -483.000
821.830;  -61.500; -270.000; -172.000
822.083; -125.750; -733.000; -288.000
822.336;  -47.325; -261.000; -167.000
822.589; -134.075; -805.000; -688.000
822.842; -119.625; -875.000; -770.000
823.094; -169.550;-1076.000;-1114.000
823.347; -125.225; -925.000; -729.000
823.600;   13.475;  402.000;  187.000
823.853;  -40.950; -311.000; -267.000
824.105;  -59.775; -331.000; -575.000
824.358;  -86.925; -617.000; -716.000
824.611;   30.050;  234.000;   40.000
824.863;  -17.825; -612.000; -591.000
825.116;   70.625;  -33.000;   27.000
825.368;  135.825; -366.000; -372.000
825.621;  235.800; -186.000; -240.000
825.873;  162.450; -704.000; -737.000
826.126;  675.750; -669.000; -641.000
826.378;14155.300; -389.000; -505.000
826.630; 5047.650; -890.000; -898.000
826.883;  130.775; -754.000; -693.000
827.135;   89.050; -279.000; -270.000
827.387;  -78.850; -893.000; -839.000
827.639;  -26.525;  -86.000;   32.000
827.892;  -95.600; -742.000; -582.000
828.144; -140.925; -848.000; -804.000
828.396;  -33.275;  104.000;  -80.000
828.648;  -93.825; -440.000; -333.000
828.900; -121.950; -702.000; -795.000
829.152; -101.950; -684.000; -683.000
829.404;  -49.600; -215.000; -267.000
829.656;  -16.000;  321.000;  214.000
829.908;  -16.850;  393.000;  229.000
830.160; -163.050;-1064.000;-1047.000
830.412;  -80.900; -481.000; -430.000
830.664; -113.500; -557.000; -665.000
830.916;  -60.825; -268.000; -206.000
831.167; -162.275;-1073.000; -951.000
831.419; -103.325; -623.000; -566.000
831.671; -143.575; -764.000; -809.000
831.923;  -80.000; -311.000; -447.000
832.174;  -74.100; -273.000; -331.000
832.426; -101.325; -493.000; -582.000
832.678; -191.100;-1043.000;-1091.000
832.929; -159.150; -947.000; -935.000
833.181;  -48.050; -575.000; -677.000
833.432;  -46.050;  -59.000; -186.000
833.684;  -23.975;  112.000;  -27.000
833.935; -106.750; -610.000; -566.000
834.187; -125.125; -829.000; -823.000
834.438;  -36.475;  -58.000;  -25.000
834.689;  -66.125; -255.000; -123.000
834.941;  -36.275; -343.000; -244.000
835.192;  -90.050; -590.000; -533.000
835.443;  -77.550; -419.000; -506.000
835.695;  -31.100;  138.000;  -16.000
835.946;  -72.400; -608.000; -378.000
836.197; -100.200; -599.000; -622.000
836.448;  -82.125; -528.000; -395.000
836.699;  -55.725; -253.000; -341.000
836.950;    4.575;   72.000;    7.000
837.201; -141.800;-1003.000; -987.000
837.452;  -31.775; -356.000; -170.000
837.703;  -95.625; -791.000; -737.000
837.954;  -14.600; -205.000; -365.000
838.205;  -50.300;-1029.000;-1008.000
838.456;  288.750; -196.000; -282.000
838.707;   47.425; -423.000; -519.000
838.958;   57.850; -634.000; -647.000
839.209;  410.825;   18.000;   40.000
839.460;  180.500; -439.000; -201.000
839.710;  232.225; -135.000; -297.000
839.961;  525.700;  730.000;  612.000
840.212;  475.225; -382.000; -497.000
840.462; 1317.600; -328.000; -277.000
840.713;20608.575; -571.000; -536.000
840.964;11643.375;  -62.000; -143.000
841.214;  749.375; -384.000; -624.000
841.465;  741.700; -214.000; -141.000
841.715;  698.250; -417.000; -380.000
841.966;  848.725; -746.000; -685.000
842.216; 8854.925; -330.000; -431.000
842.466;45386.725; -169.000; -313.000
842.717; 3682.425; -964.000; -952.000
842.967;  441.800; -635.000; -641.000
843.217;  393.700;   20.000;   28.000
843.468;  123.200; -104.000; -132.000
843.718;   -3.975; -718.000; -726.000
843.968;  -56.525; -837.000; -765.000
844.218;   44.375; -315.000; -262.000
844.469;    3.350; -577.000; -561.000
844.719;  -88.875; -537.000; -682.000
844.969;  -83.175; -550.000; -580.000
845.219; -138.675; -814.000; -862.000
845.469;  -71.075; -392.000; -342.000
845.719; -129.125; -792.000; -884.000
845.969;  -16.125;  119.000;  174.000
846.219; -110.825; -738.000; -720.000
846.469;   26.100;  464.000;  432.000
846.718;  -39.275; -115.000;   31.000
846.968; -128.825; -827.000; -827.000
847.218;  -56.575; -224.000; -371.000
847.468;    5.400; -586.000; -555.000
847.718; -150.425; -827.000; -798.000
847.967; -118.125; -826.000; -915.000
848.217;  -85.350; -449.000; -569.000
848.467;  -46.425; -405.000; -376.000
848.716;  -89.225; -708.000; -725.000
848.966;   42.925; -372.000; -358.000
849.215;  -41.325; -428.000; -419.000
849.465;  -57.975; -785.000; -615.000
849.714; -104.475;-1132.000;-1150.000
849.964;  -32.325; -551.000; -613.000
850.213;   15.500; -393.000; -355.000
850.463;  112.300;  137.000;  340.000
850.712;   44.475; -542.000; -567.000
850.961;   74.150; -739.000; -678.000
851.211;  164.700; -513.000; -504.000
851.460;  259.450; -635.000; -650.000
851.709;  706.150;  -25.000;   18.000
851.958;11517.125; -912.000; -750.000
852.208;19731.100; -859.000; -879.000
852.457;  854.550; -181.000;  -13.000
852.706;  145.625; -791.000; -823.000
852.955;   97.775; -507.000; -528.000
853.204;  -43.300; -521.000; -461.000
853.453;  -60.500; -418.000; -458.000
853.702; -115.000; -660.000; -750.000
853.951; -101.000; -532.000; -520.000
854.200; -127.200; -613.000; -562.000
854.449; -121.825; -695.000; -661.000
854.698;  -75.650; -340.000; -279.000
854.946;  -59.900; -181.000; -284.000
855.195; -152.750; -843.000; -868.000
855.444;  -88.050; -395.000; -420.000
855.693; -121.675; -345.000; -432.000
855.941;  -81.225; -387.000; -516.000
856.190;  -53.600; -256.000; -382.000
856.439; -114.550; -652.000; -703.000
856.687;  -72.700;  -99.000;  -72.000
856.936; -108.275; -621.000; -323.000
857.184; -180.200;-1067.000;-1020.000
857.433; -114.325; -423.000; -512.000
857.681; -140.100; -989.000; -953.000
857.930;  -60.550; -282.000; -433.000
858.178; -175.800; -856.000; -929.000
858.427; -146.975; -802.000; -781.000
858.675; -101.050; -377.000; -544.000
858.923;  -99.525; -527.000; -819.000
859.172; -183.375;-1094.000;-1070.000
859.420;  -97.850; -339.000; -239.000
859.668; -137.250; -624.000; -628.000
859.916;  -26.175;  109.000;  115.000
860.164; -103.800; -699.000; -603.000
860.413;  440.500; -878.000; -696.000
860.661;  504.425; -709.000; -577.000
860.909;  -68.350; -339.000; -325.000
861.157;  -85.375; -277.000; -444.000
861.405; -105.225; -534.000; -670.000
861.653;   15.300;  310.000;  310.000
861.901;  267.075; -543.000; -613.000
862.149;  146.275; -801.000; -824.000
862.396;  -66.175; -297.000; -187.000
862.644; -110.400; -368.000; -347.000
862.892;  -28.175;   98.000;  138.000
863.140; -122.975; -549.000; -530.000
863.388; -155.600; -815.000; -759.000
863.635; -124.025; -642.000; -601.000
863.883;  -20.975;  231.000;  190.000
864.131; -103.000; -288.000; -357.000
864.378; -137.925; -675.000; -540.000
864.626;  -99.050; -347.000; -415.000
864.873; -125.700; -556.000; -505.000
865.121; -142.725; -714.000; -799.000
865.368;  -41.000; -173.000;   75.000
865.616;  -53.100;  -33.000;  -40.000
865.863;  -58.100; -462.000; -506.000
866.111;  -99.200; -795.000; -824.000
866.358;   44.450; -426.000; -420.000
866.605; 2255.125;  -64.000; -804.000
866.853; 3238.900; -621.000; -537.000
867.100;   19.800; -728.000; -775.000
867.347;  -89.350; -672.000; -611.000
867.594;  -88.450; -740.000; -714.000
867.841;  139.575;   97.000;   17.000
868.089; -145.975; -746.000; -698.000
868.336; -106.150; -477.000; -420.000
868.583; -147.600; -637.000; -741.000
868.830;  -58.700; -131.000; -170.000
869.077; -163.800; -859.000; -787.000
869.324; -117.200; -502.000; -458.000
869.571; -128.250; -398.000; -430.000
869.818; -126.050; -485.000; -439.000
870.065; -105.425; -439.000; -513.000
870.311; -108.250; -456.000; -542.000
870.558; -119.100; -332.000; -311.000
870.805;  -81.000; -320.000; -384.000
871.052; -111.900; -494.000; -369.000
871.298;  -56.025; -204.000; -131.000
871.545;  -70.800; -151.000; -185.000
871.792;  -69.050; -173.000; -222.000
872.038;  -75.975;   43.000; -126.000
872.285; -118.800; -496.000; -387.000
872.532; -102.500; -357.000; -387.000
872.778;    4.875;  556.000;  403.000
873.025;  -98.100; -384.000; -359.000
873.271;   11.625;  501.000;  578.000
873.517;  -28.275; -133.000; -209.000
873.764;   -3.000; -193.000;  -80.000
874.010;  -69.525; -143.000; -230.000
874.257;  -37.275;  123.000;   90.000
874.503; -138.400; -579.000; -479.000
874.749;  -70.700;   31.000;  275.000
874.995;  -69.150;  -80.000;  -20.000
875.242; -113.500; -540.000; -478.000
875.488; -101.825; -414.000; -439.000
875.734;  -41.850; -106.000; -234.000
875.980;  287.450; -872.000;-1032.000
876.226;  706.725; -157.000; -255.000
876.472;   15.850;  343.000;  237.000
876.718;  -26.875;  184.000;  158.000
876.964;  -38.000;   56.000;   55.000
877.210; -140.250; -547.000; -677.000
877.456; -127.400; -630.000; -557.000
877.702; -160.950; -821.000; -832.000
877.948; -122.300; -377.000; -497.000
878.193;    6.200;  361.000;  255.000
878.439;  -81.850; -487.000; -472.000
878.685; -100.325; -272.000; -343.000
878.931; -136.200; -618.000; -676.000
879.176;  -78.100; -201.000; -201.000
879.422; -169.700; -933.000; -820.000
879.668;   45.700;   10.000;   79.000
879.913;  252.800;   53.000;  137.000
880.159;  -43.975; -112.000;  -17.000
880.404;  -55.025; -152.000; -162.000
880.650;  -54.700;   91.000;  141.000
880.895; -163.275; -670.000; -710.000
881.141; -124.650; -454.000; -428.000
881.386; -155.400; -503.000; -658.000
881.631;  -83.450; -311.000; -166.000
881.877;  -32.350;  112.000;  -13.000
882.122; -125.225; -684.000; -600.000
882.367; -102.125; -136.000; -186.000
882.612;  -69.850;  -80.000; -176.000
882.858; -178.825; -877.000; -823.000
883.103;  -95.550; -297.000; -267.000
883.348; -148.350; -759.000; -852.000
883.593; -154.150; -677.000; -602.000
883.838;  -60.650; -311.000;  -24.000
884.083;   47.925;  353.000;  288.000
884.328;  -92.900; -564.000; -545.000
884.573;  -42.300; -196.000; -143.000
884.818;  280.075; -694.000; -531.000
885.063;  415.850; -348.000; -315.000
885.308;  -90.500; -475.000; -398.000
885.553;   -7.675;  245.000;  325.000
885.797; -135.925; -545.000; -615.000
886.042;  -66.000;    8.000;   58.000
886.287;  -88.700; -253.000; -211.000
886.532;  -57.825;   26.000;  204.000
886.776; -108.250; -407.000; -525.000
887.021; -144.825; -621.000; -574.000
887.265; -167.200; -685.000; -689.000
887.510; -140.175; -557.000; -496.000
887.755;  -92.075; -194.000; -164.000
887.999; -143.800; -552.000; -575.000
888.244;  -82.150;  -58.000;  161.000
888.488;  -21.875;  371.000;  393.000
888.732; -130.100; -368.000; -520.000
888.977; -120.325; -622.000; -567.000
889.221; -139.000; -683.000; -659.000
889.465; -129.725; -422.000; -566.000
889.710;  -77.350;  -56.000; -299.000
889.954;   -4.200;  579.000;  467.000
890.198; -145.650; -584.000; -707.000
890.442; -154.000; -716.000; -712.000
890.687; -163.000; -800.000; -753.000
890.931;  -84.950; -273.000; -210.000
891.175; -135.375; -502.000; -500.000
891.419;  -73.250; -105.000; -110.000
891.663;  -95.925; -239.000; -112.000
891.907; -167.000; -801.000; -545.000
892.151; -172.450; -920.000; -815.000
892.395; -113.225; -274.000; -387.000
892.638;  -33.575;  408.000;  291.000
892.882; -174.475; -780.000; -867.000
893.126;    8.600;  758.000;  558.000
893.370; -101.350; -167.000; -168.000
893.614; -156.825; -714.000; -715.000
893.857;  -86.850; -183.000; -197.000
894.101; -141.750; -527.000; -631.000
894.345;  -62.975;  300.000;  150.000
894.588;    9.725;  569.000;  380.000
894.832;  -95.375; -178.000;  -84.000
895.075;  -89.125;   15.000;  -92.000
895.319; -133.450; -552.000; -420.000
895.563; -120.075; -413.000; -353.000
895.806; -142.850; -628.000; -741.000
896.049;  -57.300; -576.000; -368.000
896.293;  149.150;  527.000;  405.000
896.536;  -44.275; -465.000; -468.000
896.779;  -41.450; -149.000;   -1.000
897.023; -137.225; -751.000; -714.000
897.266;  -30.175;  325.000;  269.000
897.509; -187.050; -900.000; -901.000
897.752;  -60.100;  149.000;  171.000
897.996; -189.475; -972.000; -864.000
898.239;  -39.925;  168.000;  102.000
898.482; -119.425; -431.000; -453.000
898.725;  -30.475;  101.000;   53.000
898.968; -154.500; -609.000; -744.000
899.211;  -96.550; -513.000; -361.000
899.454; -109.600; -633.000; -539.000
899.697;  -65.750;   90.000;  -43.000
899.940; -170.075; -761.000; -757.000
900.182; -104.825; -335.000; -405.000
900.425;  -99.200; -150.000; -298.000
900.668;  -32.275;  491.000;  350.000
900.911; -107.650; -292.000; -345.000
901.154;  -60.325;  141.000;   -3.000
901.396; -131.900; -407.000; -412.000
901.639; -140.825; -430.000; -496.000
901.882; -181.225; -790.000; -809.000
902.124;  -81.050;  -29.000; -143.000
902.367; -123.175; -315.000; -361.000
902.609; -123.050; -476.000; -453.000
902.852;  -95.200; -108.000; -260.000
903.094; -120.975; -458.000; -337.000
903.337;  -47.750;  -26.000;   53.000
903.579; -119.325; -228.000; -441.000
903.821; -152.525; -597.000; -744.000
904.064;  -59.050;   85.000;  127.000
904.306;  -95.875; -126.000; -166.000
904.548; -105.225; -152.000; -366.000
904.790; -104.225; -195.000; -340.000
905.033; -132.650; -625.000; -577.000
905.275; -132.125; -513.000; -524.000
905.517;   51.925;  468.000;  256.000
905.759;  -22.450; -667.000; -761.000
906.001;  -84.250; -322.000; -369.000
906.243;  -59.375; -162.000; -224.000
906.485;  191.225; -265.000; -207.000
906.727;  280.775; -499.000; -542.000
906.969;  -10.975;  -30.000; -135.000
907.211;  194.400; -316.000; -382.000
907.453;  478.300; -188.000; -237.000
907.695;  107.300; -158.000; -385.000
907.936;   39.925;  818.000;  706.000
908.178;  -58.600;   92.000; -135.000
908.420;  -73.100; -111.000; -162.000
908.662; -144.200; -633.000; -682.000
908.903;  -73.775; -208.000; -123.000
909.145;  -71.950; -240.000; -305.000
909.386;    0.950;  315.000;  280.000
909.628;   24.050;  363.000;  397.000
909.870;   -0.300;   29.000;  264.000
910.111;  -96.875; -809.000; -949.000
910.353;   -2.375; -123.000; -161.000
910.594;    4.200; -574.000; -606.000
910.835;   85.750; -265.000; -326.000
911.077;  164.200; -503.000; -604.000
911.318;  300.375; -505.000; -471.000
911.559;  470.750; -577.000; -880.000
911.801; 1252.575; -284.000; -280.000
912.042; 8885.425;  -50.000; -159.000
912.283;28444.950;  404.000;  371.000
912.524; 5938.875; -396.000; -457.000
912.765;  602.075; -193.000;   79.000
913.006;  275.525; -307.000; -338.000
913.247;   63.725; -270.000; -290.000
913.488;    4.200;  -43.000;   30.000
913.729;  -88.550; -373.000; -373.000
913.970;  -70.375;  -96.000; -292.000
914.211;  -72.625; -160.000; -198.000
914.452;  -68.550; -118.000;  -11.000
914.693;   18.850;  510.000;  592.000
914.934;    2.625;  510.000;  440.000
915.175;  -71.050;   53.000;  -95.000
915.415;  -81.775; -137.000;   27.000
915.656;  -59.875;  -28.000;  192.000
915.897;  -89.650; -252.000;  -82.000
916.137;  -54.875;   74.000;   -9.000
916.378; -136.575; -573.000; -517.000
916.619;  -90.475; -159.000;  -63.000
916.859;  -36.650;  303.000;  330.000
917.100;  125.725; 1655.000; 1070.000
917.340;   39.350;  930.000;  728.000
917.581;   47.900;  965.000;  789.000
917.821;   -7.350; -171.000;  143.000
918.061;   82.700; -199.000;  -72.000
918.302;  -43.725; -152.000; -211.000
918.542;   -1.350;  -22.000;    3.000
918.782;   69.325;  369.000;  377.000
919.023;  173.975;  360.000;  427.000
919.263; 1888.500; 8131.000;  202.000
919.503; 1805.625; -137.000;  -54.000
919.743;  941.350;  390.000;  266.000
919.983;  507.375; -134.000;  -26.000
920.223;  135.350;  135.000;   14.000
920.463;  187.750;  631.000;  554.000
920.703;  190.625;   84.000;   39.000
920.943;  252.700; -110.000;   90.000
921.183;  316.750; -414.000; -405.000
921.423;  638.100;  307.000;  546.000
921.663;  914.150; -174.000; -257.000
921.903; 1889.575;  237.000;  173.000
922.143; 9565.275;  372.000;  389.000
922.383;40514.950;  158.000;  115.000
922.622;18580.575; -120.000;  -15.000
922.862; 1912.400;  796.000;  785.000
923.102;  690.025;  -51.000;   33.000
923.341;  290.500;   59.000;   74.000
923.581;  130.375;  450.000;  360.000
923.821;   38.950;  301.000;  398.000
924.060;    5.325;  351.000;  193.000
924.300;  -39.350;  -16.000; -128.000
924.539;   -0.100;  584.000;  473.000
924.779;    1.650;  812.000;  597.000
925.018;  -46.875;  247.000;  353.000
925.257;   -4.325;  595.000;  666.000
925.497;  -37.925;  447.000;  412.000
925.736;  -71.150;  -35.000;  102.000
925.975;   -9.750;  687.000;  669.000
926.214;   36.450;  907.000;  850.000
926.454;    0.000;  706.000;  757.000
926.693;  -33.625;  419.000;  543.000
926.932;   49.100; 1021.000;  825.000
927.171;   67.275; 1107.000; 1044.000
927.410;   55.475; 1144.000;  967.000
927.649;   37.300;  924.000;  742.000
927.888;   -9.600;  590.000;  564.000
928.127;    2.725;  680.000;  678.000
928.366;   26.725;  842.000;  826.000
928.605;   49.925;  831.000;  737.000
928.844;  261.125; 1451.000; 1393.000
929.083;  825.975;  770.000;  613.000
929.321;  494.125; 1335.000; 1359.000
929.560;  104.975; 1158.000; 1122.000
929.799;  -30.950;  574.000;  475.000
930.038;   93.025; 1025.000; 1394.000
930.276;  -51.825;  334.000;  397.000
930.515;    6.275;  827.000;  681.000
930.753;  -18.125;  614.000;  589.000
930.992;  -34.875;  664.000;  717.000
931.230;   -8.275;  847.000;  847.000
931.469;  160.875; 2162.000;  892.000
931.707;   70.350;  840.000;  751.000
931.946;   57.375; 1278.000; 1344.000
932.184;   48.650; 1437.000; 1175.000
932.423;   58.725; 1265.000;  963.000
932.661;   90.650; 1296.000; 1428.000
932.899;   45.050;  987.000;  821.000
933.137;   19.075;  754.000;  564.000
933.376;  173.950; 1664.000; 1335.000
933.614;  175.575; 1759.000; 1196.000
933.852;   65.275; 1357.000; 1171.000
934.090;  145.150; 1722.000; 1747.000
934.328;  118.350; 1252.000; 1457.000
934.566;  111.600; 1431.000; 1110.000
934.804;  157.900; 1263.000; 1309.000
935.042;  513.825; 1861.000; 1850.000
935.280; 2026.950; 2088.000; 2063.000
935.518; 2421.350; 2113.000; 2007.000
935.756;  491.525; 2481.000; 2316.000
935.994;  203.550; 1808.000; 1751.000
936.231;  387.100; 2890.000; 2950.000
936.469;  194.700; 2367.000; 2378.000
936.707;  161.100; 2220.000; 2167.000
936.945;  236.775; 2825.000; 2882.000
937.182;  214.150; 2679.000; 2741.000
937.420;  309.425; 3602.000; 3031.000
937.657;  471.725; 3365.000; 3478.000
937.895;  379.625; 3331.000; 3488.000
938.133;  321.050; 3540.000; 3528.000
938.370;  329.550; 3896.000; 4191.000
938.607;  388.800; 4488.000; 4205.000
938.845;  536.475; 5587.000; 5549.000
939.082;  482.150; 5387.000; 5177.000
939.320;  524.800; 5799.000; 5728.000
939.557;  635.925; 6549.000; 6491.000
939.794;  705.675; 7285.000; 7097.000
940.031;  940.750; 8421.000; 8368.000
940.269; 1168.975; 9552.000; 9107.000
940.506; 1157.250;10901.000;10507.000

