
Integration time [ms]: 200.000
Averaging Nr. [scans]: 10
Smoothing Nr. [pixels]: 0
Data measured with spectrometer [name]: 2101013U2
Wave   ;Sample   ;Dark     ;Reference
[nm]   ;[counts] ;[counts] ;[counts] 

394.013;  137.378; -450.257; -315.536
394.305;  477.575; -461.258; -419.536
394.596; 1995.437; -676.269; -527.514
394.887; 4691.459; -796.268; -654.518
395.178; 1815.500;  145.736;   11.476
395.470;  151.415; -210.263; -356.526
395.761;  480.979;  305.734;  394.479
396.052;  877.069; -545.284; -306.489
396.343;  835.062; -557.276; -454.503
396.634;  217.520; -200.279; -290.497
396.926;  228.655; -618.268; -565.517
397.217;  223.168;   11.725;  -17.504
397.508;   77.790; -366.273; -154.507
397.799;   95.320; -555.279; -571.497
398.090;  -21.087; -973.280; -902.495
398.381;  218.068;   11.708;  -11.473
398.672;  -20.230; -585.292; -742.473
398.963;  102.029; -348.279; -373.498
399.254;  195.082;   54.709; -209.475
399.545;  -29.526;-1017.266; -883.520
399.836;   93.748; -407.277; -343.501
400.127;  119.136; -205.295; -209.468
400.418;  149.882; -423.274; -392.506
400.709;  168.196; -359.281; -333.493
401.000;  141.987; -268.291; -309.476
401.290;  190.051;  225.698;  115.545
401.581;  145.246; -166.286; -228.485
401.872;   36.799; -542.298; -486.462
402.163;   99.026; -313.296; -252.467
402.454;  150.783; -123.291; -163.475
402.744;   78.115; -844.297; -813.465
403.035;  741.456; -226.293;  -86.471
403.326; 1014.174; -366.292; -384.474
403.617;  716.391;  204.701;  165.539
403.907;  390.276; -593.283; -679.490
404.198; 4033.590; -545.307; -599.446
404.489;10459.283; -618.283; -588.491
404.779; 3633.356; -618.302; -660.456
405.070;  423.227;  -67.304; -174.451
405.360;  597.459; -259.293; -238.472
405.651;  672.271;  125.699;   98.542
405.942;  379.039;  209.714;  127.516
406.232;  518.359; -432.285; -413.487
406.523;  975.449;  641.706;  758.530
406.813;  216.142; -579.286; -644.484
407.104;  688.867;  261.708;  144.527
407.394;  337.693; -604.299; -591.462
407.685;  318.758;  336.715;  222.513
407.975;  112.381; -400.283; -382.490
408.265;  226.702; -134.289; -190.478
408.556;  110.079; -472.291; -459.475
408.846;  360.351;  474.706;  429.530
409.137;  176.513;   -1.288; -216.480
409.427;   95.458; -193.285; -271.487
409.717;   40.594; -776.273; -692.508
410.007;  235.150;    4.715; -170.486
410.298;  169.440; -360.295; -342.469
410.588;  107.055; -495.285; -510.486
410.878;   28.128; -792.287; -873.482
411.168;  189.802; -481.298; -478.463
411.459;  188.474; -295.283; -242.489
411.749;   60.677; -609.292; -507.474
412.039;   77.911; -755.289; -386.480
412.329;  373.138;   40.722;  132.501
412.619;  306.243;  -62.286; -148.485
412.909;  686.906;  639.711;  594.521
413.199;  607.413; -130.280; -251.495
413.490;  766.193;  521.710;  352.523
413.780;  205.419;-1013.279; -913.496
414.070;  558.564;  -46.276;  235.497
414.360;  604.133; -729.278; -666.498
414.650;  695.323; -726.288; -688.482
414.940;  852.318; -538.280; -441.496
415.230; 1556.319;   50.712;   74.519
415.520; 9899.835;  155.730;   66.486
415.809;39318.195; -305.281; -125.493
416.099;31235.751; -388.277; -229.501
416.389; 8407.979;  435.726;  236.494
416.679; 5052.220;   91.738;   85.473
416.969;  866.434; -527.287; -503.483
417.259; 1028.921;  341.721;  171.503
417.549; 1165.093;  522.718;  318.508
417.838; 2608.258; -205.268; -147.518
418.128; 8784.200;  650.710;  492.522
418.418; 7541.802; -491.272; -579.509
418.708; 4902.379;    9.726;  -48.506
418.997;18256.874; -474.275; -480.505
419.287;19714.589; -733.273; -790.507
419.577;17856.173; -160.283; -123.489
419.866;57985.748; -588.277; -498.501
420.156;60468.630; -242.270;  -55.513
420.446;11455.210; -112.263;  -26.526
420.735; 1496.422; -376.271; -446.512
421.025; 1552.932; 1830.722;  315.502
421.314; 1294.819; -203.271; -226.512
421.604; 2641.148;   89.732;  233.484
421.893; 1541.515; -705.271; -602.511
422.183;  375.810; -487.263; -461.526
422.472;  647.716;  -36.271; -107.511
422.762;  742.282; -416.266; -379.521
423.051;  390.364; -916.276; -916.503
423.341;  505.791; -491.273; -439.507
423.630;  669.290; -121.265;   15.477
423.919;  651.673;   58.725;   49.495
424.209;  627.117;  -31.263;   56.473
424.498;  818.055;   68.732;  161.483
424.787; 1667.263; -535.267; -601.518
425.077; 5327.088;   34.735;   29.478
425.366; 7700.425; -734.262; -744.528
425.655;15309.992;  639.727;  259.493
425.945;32828.598; -313.247; -268.554
426.234;18871.455;  117.741;  300.467
426.523; 8204.762;  -86.259; -350.534
426.812;11340.477;  107.734;  159.480
427.101;16139.444; -127.269; -323.515
427.390;20835.835;  -55.270;  -86.514
427.680; 4902.488; -624.257; -411.538
427.969;  860.103; -330.255; -301.540
428.258;  553.077; -385.257; -477.536
428.547;  981.108;  449.728;  397.490
428.836; 2028.224; -421.253; -398.543
429.125; 3056.864; -199.259;  -72.534
429.414; 1403.755; -330.251; -294.548
429.703; 4935.555; -231.251; -213.548
429.992;14810.060; -938.250; -828.549
430.281;10088.000; -397.264; -331.524
430.570; 1076.642;  -21.252;   32.454
430.859; 1061.161;  279.741;  352.466
431.148;  891.792;  636.752;  631.446
431.437;  584.841;  391.748;  367.454
431.725;  248.479; -544.257; -481.536
432.014;  161.034; -845.253; -756.545
432.303;  690.293; -149.239; -105.569
432.592; 1034.309; -460.263; -178.525
432.881; 1646.493; -601.248; -437.554
433.169; 9543.904; -343.255;  -61.540
433.458;19616.739;  445.765;  540.424
433.747; 8510.732; -397.261; -289.529
434.036; 1576.061; -275.242; -280.564
434.324; 3341.176; -395.249; -379.551
434.613; 5824.052;   40.757;  159.437
434.902; 2072.180;  333.760;  439.433
435.190; 1113.892;   75.761;  295.431
435.479;  614.728;  -52.245;   83.441
435.767;  197.139; -411.244; -427.561
436.056;  364.255; -340.242; -294.563
436.345;  614.483; -372.240; -223.568
436.633;  690.270;   60.750;  383.450
436.922;  532.486;  208.760;  414.432
437.210; 1131.025; -194.236;    1.426
437.499; 3565.636; -583.235; -432.576
437.787; 4044.825; -339.236;  -10.574
438.075; 1031.299;   56.761;  162.430
438.364; 1348.703;  -44.238;  250.429
438.652;  879.843; -286.226; -138.592
438.941;  284.595;    3.770;  269.415
439.229;   21.438; -665.252; -466.545
439.517;   82.447; -160.234;  -85.577
439.806;  -21.336; -501.225; -290.595
440.094;  370.458;  377.766;  650.421
440.382;  307.663; -653.233; -302.580
440.670;  354.836; -361.235; -285.576
440.959;   52.087; -347.223; -170.599
441.247;  119.010; -151.229; -109.587
441.535;  192.445; -266.235;   31.423
441.823;   92.754; -497.234; -305.578
442.111;  335.116;  173.771;  327.412
442.400;  924.527; -628.245; -335.559
442.688; 2590.357; -111.234; -620.579
442.976; 1878.905; -786.213; -450.617
443.264;  186.973; -324.224; -364.597
443.552;  200.844; -258.226;   51.408
443.840;  355.443;  602.765;  876.423
444.128;  249.561;  265.767;  269.420
444.416;  -36.181; -694.228; -312.588
444.704;   41.327; -465.219;  -92.605
444.992;  128.848;   -0.226;  240.407
445.280;   46.296; -517.230;  -94.585
445.568;   64.410; -694.212; -396.618
445.856;  623.706; -174.221;  357.398
446.143; 1389.622;  -54.220;   -7.604
446.431; 1135.924;  -25.228;  625.411
446.719;  431.853;  489.783;  675.391
447.007;  375.188;  481.769;  705.416
447.295;  338.483;  597.777;  871.402
447.583;  140.207; -464.229;  -34.587
447.870;  201.401; -434.221; -202.601
448.158;  725.294; -104.230;  129.415
448.446;  490.723; -800.219; -338.604
448.733;  299.975;   13.776;  269.403
449.021;  413.109;   60.788;  341.382
449.309;  296.929; -296.210;  208.379
449.596;  343.848;  128.783;   59.392
449.884;  221.793; -571.222; -325.600
450.172;  166.531; -756.227; -406.590
450.459;  705.382;  645.786;  780.387
450.747; 3489.046; -411.218; -147.608
451.034;11224.626;  493.772;  889.411
451.322; 9480.486; -413.214; -170.614
451.609;  809.077;  292.777;  508.403
451.897;  826.413; -550.203; -183.634
452.184; 2647.984; -622.223; -400.598
452.472; 2589.958;   97.792;  269.375
452.759;  612.924;  512.781;  864.395
453.047;  184.806; -407.212; -125.617
453.334;  116.735; -732.219; -216.606
453.621;  131.990; -438.214; -161.615
453.909;  198.503;   13.796;  384.368
454.196;  184.363; -299.199; -123.641
454.483;  377.331;  317.798;  540.364
454.771;  249.962; -215.208;  196.374
455.058;   95.766; -316.207;  102.374
455.345;  203.537;   71.807;  344.347
455.632;  154.270; -128.207;  235.373
455.919;  117.293;  -82.196;  182.354
456.207; -133.931; -774.198; -450.642
456.494;  -43.153; -475.200;  -66.639
456.781;   -0.475; -399.202; -198.635
457.068;  139.179; -253.206;  -29.628
457.355;  -53.119; -698.206; -401.629
457.642;  -29.512; -552.205; -290.630
457.929;  -13.775; -778.194; -417.651
458.216;   81.206; -575.212; -354.617
458.503;  370.532; -173.193;  -19.652
458.790;  302.859; -864.208; -630.625
459.077;  464.331;  -77.202;  110.364
459.364; 1140.416; -350.195; -210.649
459.651; 2509.076;  -46.206;  220.372
459.938; 1169.146; -864.209; -665.623
460.225;  291.436;  132.799;  276.363
460.512; -104.710; -836.197; -688.645
460.799;  194.444;  -32.218;  320.392
461.086;  115.553; -370.200; -251.640
461.372;   46.570; -509.198; -279.642
461.659;  219.795; -165.196;  108.354
461.946;  118.430; -445.193;  -54.651
462.233;  463.050;  842.800;  888.361
462.519;  484.246; -814.201; -464.639
462.806; 1475.190; -768.197; -497.645
463.093; 1347.457; -445.191;  -66.656
463.380;  -97.788; -920.186; -824.664
463.666;  111.593; -259.197;  -18.646
463.953;  131.309; -406.195; -243.648
464.239;  296.209; -173.195;  -77.648
464.526;  694.123;  413.806;  743.350
464.813;  525.473; -565.190; -304.658
465.099;  608.931;  606.807;  607.348
465.386;  645.736;  903.807;  921.348
465.672;   33.591; -694.197; -522.645
465.959;   59.397; -598.188; -520.662
466.245;   41.436; -468.193; -359.652
466.532;  164.406; -109.195;   63.352
466.818;  112.112; -357.186; -216.664
467.104;  -14.134; -488.182; -415.672
467.391;  -44.925; -628.189; -459.658
467.677;   63.317; -289.186;    9.335
467.964;  -10.116; -682.189; -471.660
468.250;  124.221; -331.186; -160.665
468.536;  161.677;   90.811;  180.341
468.822;  -89.664; -821.184; -574.668
469.109;  312.374;  351.827;  471.311
469.395;  412.449;  729.808;  787.346
469.681;  327.181;   46.811;  156.341
469.967; 1732.587; -699.188; -382.660
470.254; 3989.098; -494.188; -306.662
470.540; 2570.993; -601.196; -476.646
470.826;  318.781; -488.181; -397.675
471.112;  476.941;  288.816;  113.331
471.398;  144.547; -253.183;  -58.670
471.684;   72.319; -626.177; -447.680
471.970;  -56.314; -918.180; -981.675
472.256;   42.948; -521.192; -441.654
472.542;   56.289; -499.171; -434.691
472.828;  -10.339; -743.182; -607.672
473.114;   18.347; -380.166; -283.700
473.400;   66.841; -504.175; -293.684
473.686;   53.455; -452.166; -400.701
473.972;  104.760; -230.174; -131.687
474.258;  -94.526; -925.173; -843.689
474.544;  292.008; -183.178;   -2.679
474.830;  445.943;  -65.175;   45.316
475.116;  686.575; -123.190; -196.658
475.401;  876.089; -558.180; -467.676
475.687;  270.888; -725.180; -718.676
475.973;  -13.229; -673.181; -770.673
476.259;  481.546;  736.825;  764.315
476.544;  524.529; -539.176; -437.682
476.830; 1189.883; -398.172; -322.690
477.116;  962.028; -430.177; -336.682
477.401;  297.688;  346.820;  358.324
477.687;   -6.059; -289.175; -405.684
477.973;   91.376;   21.819;   28.326
478.258;  -25.617; -448.163; -348.706
478.544;  101.128;   21.815;   61.334
478.829; -136.104; -818.171; -738.692
479.115;  -97.617; -749.172; -651.690
479.401;  -12.146; -444.174; -449.686
479.686;   67.887; -253.180;  -74.676
479.972; -140.886; -886.178; -776.680
480.257;   91.349; -258.166;  -65.700
480.542;  -27.399; -614.170; -469.693
480.828;  487.239; 1288.824; 1392.317
481.113;  -53.464; -464.176; -426.683
481.399;  -11.786; -236.161; -202.711
481.684;  -93.852; -620.166; -462.700
481.969;   34.132; -158.159;  -73.713
482.255;  -28.485; -439.169; -285.695
482.540;  -12.285; -569.178; -441.680
482.825;   -9.194; -395.187; -404.663
483.110;  133.220;  -85.169; -105.696
483.396;  221.061; -840.157; -652.718
483.681;  757.360;  543.826;  730.313
483.966;  197.224; -696.160; -700.712
484.251;   38.359; -404.174; -310.687
484.536;   37.762; -356.165; -378.703
484.822;   20.463; -205.173; -218.687
485.107;  -42.588; -599.152; -502.726
485.392;  256.570;  662.836;  541.296
485.677;  132.433;  354.832;  163.302
485.962;  227.658;  160.843;  270.283
486.247;  192.293;  -14.162;   -8.707
486.532;   41.450; -178.166; -325.701
486.817;  267.907;  381.839;  431.291
487.102;  170.090; -453.154; -514.722
487.387;  887.864; -637.156; -652.718
487.672; 1644.977; -154.164;  -38.705
487.957; 1060.516; -394.160; -286.711
488.241;  317.035; -290.150; -314.729
488.526; 1005.214; -280.152; -148.726
488.811; 1598.617; -881.177; -818.680
489.096; 1215.193; -666.154; -702.723
489.381;  683.509;    3.847;  162.275
489.666;  497.614; -428.161; -510.710
489.950;  356.397;  558.846;  627.277
490.235;  -68.072; -480.151; -458.728
490.520;  -98.587; -756.161; -723.710
490.804; -118.334; -827.156; -736.719
491.089;    6.856; -469.149; -299.732
491.374;   82.275; -132.164;  -75.704
491.658;  -41.129; -817.147; -717.735
491.943;  239.320; -657.152; -609.727
492.227;  374.884; -178.155;  -38.721
492.512;   88.857; -294.157; -341.717
492.797; -149.152; -713.149; -716.731
493.081; -115.825; -588.147; -598.735
493.366;  -61.985; -751.161; -635.711
493.650;  396.846;  831.859;  917.254
493.935;    6.770; -648.147; -447.734
494.219; -119.371; -778.142; -687.743
494.503;  -62.859; -585.150; -487.730
494.788;   81.246;   46.842;   74.285
495.072;  189.536;  184.850;  434.271
495.356;  211.460; -463.148; -343.733
495.641;  640.383; -812.146; -736.736
495.925;  577.373; -976.156; -903.719
496.209;   44.455; -599.149; -451.732
496.494; -110.471; -763.142; -544.744
496.778;   40.590; -364.154; -360.722
497.062; -132.128; -819.156; -627.719
497.346;  -71.181; -869.160; -640.711
497.631;  266.165;  580.852;  560.266
497.915;  180.398;  -64.145;  175.261
498.199;   65.661; -341.157; -277.718
498.483;   30.312; -562.152; -508.725
498.767;  300.338;  301.850;  300.271
499.051;  281.352; -126.149; -100.732
499.335;   -8.151; -693.149; -739.731
499.619;  -58.319; -381.129; -423.767
499.903;   32.482; -272.155;  -65.721
500.187;   51.399; -588.153; -316.724
500.471;  -29.381; -796.152; -595.727
500.755;  205.913;   62.839;  -96.710
501.039;    1.183; -270.155; -357.721
501.323;  186.148;  -21.141;  264.254
501.607;   59.983; -447.163; -503.706
501.891;  -10.037; -607.156; -512.718
502.174;  -39.187; -726.144; -585.741
502.458;  159.024;   89.849;  370.273
502.742;   59.880; -180.138; -191.751
503.026;  147.070; -412.147; -254.734
503.310;  212.831; -437.159; -375.713
503.593;  131.972; -464.147; -325.735
503.877;  202.534; -232.133; -156.760
504.161;  303.803;    2.847;  -50.724
504.444;  131.549; -841.158; -710.716
504.728;  583.274; -487.164; -522.704
505.012;  981.634; -257.150;  -76.729
505.295;  788.114; -417.161; -212.711
505.579;  782.672; -256.156; -496.719
505.862; 1007.393; -555.145; -333.738
506.146;  962.534; -681.159; -758.714
506.429;  623.735;  568.841;  461.286
506.713;   57.630; -732.151; -667.728
506.996;  488.489;   90.846;  295.278
507.280;  451.867; -633.165; -474.703
507.563;  339.780; -469.155; -261.721
507.847;  134.100; -423.153; -112.724
508.130;   89.715; -665.161; -456.711
508.413;  126.143; -758.167; -577.700
508.697;  357.343; -151.167;   12.300
508.980;  195.702; -422.153; -312.724
509.263;  -20.125; -466.155; -450.720
509.547;   45.333; -124.150;   82.271
509.830;  100.318; -172.160;  140.289
510.113;  183.872;  128.844;  298.281
510.396;   43.110; -530.152; -300.725
510.680;  261.194; -818.145; -812.738
510.963; 1135.695;  184.846;  180.277
511.246;  988.644; -493.150; -357.730
511.529;  401.101; -482.145;  -83.739
511.812;  516.129; -250.134;   10.241
512.095;  347.126; -740.151; -396.728
512.378;  107.677; -317.147; -245.736
512.661;  -10.110; -703.137; -623.753
512.944;   17.831; -750.142; -637.744
513.227;   97.887; -170.137; -171.752
513.510;   48.712; -479.144; -671.741
513.793;   33.154; -485.140; -435.747
514.076;  204.709;  -43.127;  -39.771
514.359;  184.456; -294.149; -135.732
514.642;  103.435; -442.142; -567.744
514.925; 1099.152;  581.860;  561.253
515.208; 1312.524; -498.134; -443.758
515.491;  933.643; -276.133; -182.761
515.773;  520.317; -410.143; -337.742
516.056; 2869.299;  249.864;  409.246
516.339; 3900.804; -754.136; -652.755
516.622; 2886.441; -518.150; -488.730
516.904; 2217.827;  882.857;  975.257
517.187;  934.785; -730.138; -523.752
517.470;  578.425; -568.143; -510.743
517.752;  563.708; -624.136; -470.756
518.035;  385.168; -708.139; -725.749
518.318;  447.704; -799.136; -744.755
518.600; 3287.448; -300.132; -325.762
518.883; 4477.535;  310.858;   88.256
519.165; 2274.775; -585.138; -426.751
519.448;  594.347;  -61.132;  -19.762
519.730;  266.019; -573.126; -415.773
520.013;  611.538;  588.867;  664.240
520.295; 1428.332;  -94.134;  -15.759
520.578; 3063.465; -335.131; -305.764
520.860; 3420.347; -254.132;   56.238
521.143; 1731.411; -763.135; -584.756
521.425;  693.836; -251.125; -279.775
521.707;  919.809; -622.127; -380.771
521.990; 2475.910; -199.127;  167.229
522.272; 2679.356; -116.140;   -4.748
522.554; 1362.718; -237.143; -157.742
522.836;  627.229;  -24.134;   99.241
523.119;  349.068; -496.148; -189.734
523.401;  185.074; -448.130; -314.766
523.683;   86.891; -865.137; -693.753
523.965;  443.382;  408.862;  260.248
524.247;  423.964;   54.878;  170.220
524.529;  255.031; -451.134; -367.759
524.812;  494.576;   -3.130;  191.234
525.094; 1110.381; -773.138; -631.751
525.376; 1867.448; -143.124;   78.223
525.658; 1098.700; -441.136; -339.754
525.940;  -15.240; -805.131; -671.764
526.222;   59.705; -188.136;  -88.755
526.504;  190.257; -190.131;   32.237
526.786;  241.135; -960.133; -647.760
527.068;  499.956; -124.123;  -67.778
527.349;  211.296; -865.137; -774.754
527.631;  187.947; -137.132;   22.238
527.913;  168.708; -664.127; -450.771
528.195;  158.527; -761.125; -639.774
528.477;  343.125;  -93.134;  -30.758
528.759;  128.776; -648.130; -522.766
529.040;   35.554; -569.123; -293.778
529.322;   88.930; -235.125;  -10.774
529.604;  224.279;  -47.130;   93.233
529.886;  193.818; -546.126; -302.773
530.167;  247.468;  232.870;  192.235
530.449;   98.876;    1.853;   63.265
530.731;  -45.337; -572.122; -459.779
531.012;   34.691; -513.120; -216.784
531.294;   95.843; -118.116;  -43.792
531.575;  276.636;  290.875;  538.225
531.857;   39.018; -548.135; -266.757
532.138;  179.046; -113.141;   40.254
532.420;  294.013;  294.865;  403.244
532.701;  274.338; -722.133; -751.760
532.983;  574.642;  232.867;  182.239
533.264;  198.616; -243.126;  175.228
533.546;  -56.495; -491.136; -508.755
533.827;   79.633;  173.867;   -1.759
534.109;   67.418; -352.135;  -80.757
534.390;  107.752; -725.132; -582.762
534.671;  356.412; -270.135;  -82.756
534.953;  150.058; -751.123; -611.779
535.234;  -10.177; -426.117; -255.789
535.515; -183.298; -891.119; -735.785
535.796;  -28.197; -431.128; -193.770
536.078; -244.352;-1050.124; -904.777
536.359;   -9.041;  -22.123;    3.221
536.640;  -22.871; -480.125; -197.774
536.921;  249.486;  225.871;  143.232
537.202;  528.677;  -87.138;  -16.751
537.483;  662.264;  251.869;  377.236
537.764;  294.268;   17.870;   98.235
538.045;  -81.077; -543.134; -371.758
538.326;  -74.611; -596.129; -447.768
538.607;  -27.989; -686.127; -476.771
538.888;  270.279;   98.879;    5.218
539.169;  209.472; -704.122; -535.781
539.450;  498.585;  236.871;   16.233
539.731;  289.184; -361.121; -182.783
540.012;  200.391;  199.880;  412.216
540.293;  154.641;   82.876;  158.224
540.574;  -49.929; -895.113; -717.796
540.855;  686.982;  435.879;  377.218
541.136;  744.468;   47.878;  139.220
541.416;  417.177; -161.130; -220.766
541.697;  257.358; -274.131; -170.763
541.978; 1423.016; -270.135; -315.757
542.259; 1765.210; -211.127; -236.771
542.539;  915.935; -191.116; -186.790
542.820;  283.836;  461.875;  480.225
543.101;  186.397;  -52.145;  -77.738
543.381;   16.810; -638.127; -591.771
543.662;  418.907;  159.873; -254.771
543.942;  703.904; -751.127; -830.770
544.223; 1411.370;  193.878;  161.219
544.504;  907.047; -275.124; -182.777
544.784;  802.418; -592.126; -408.773
545.065; 2258.040;  104.884; -254.791
545.345; 2724.802;  227.881;   14.215
545.626; 1736.270;  -14.113; -108.796
545.906; 1186.767;   77.869;   98.235
546.186;  497.424;   92.874;  -95.773
546.467;  288.351;   99.877;  -95.778
546.747;  499.235;  264.884;  327.210
547.027;  542.346;   91.876;  111.223
547.308;  432.303; -376.127; -530.770
547.588;  563.190;  299.871;  371.232
547.868;  353.969;  458.870;  588.235
548.149;  364.550;  609.885;  593.207
548.429;  130.108; -347.127; -299.771
548.709;  203.191; -645.120; -461.784
548.989;  651.315;   84.882;   88.213
549.269; 2890.045;   10.868;  139.239
549.550; 6386.356;  215.877;  117.222
549.830; 5688.194; -758.111; -556.799
550.110; 1149.204; -468.110; -320.801
550.390; 1107.864; -128.122;  -56.779
550.670; 1457.764; -868.114; -783.795
550.950; 1048.482; -509.121; -471.782
551.230;  347.777;  549.879;  460.218
551.510;  -44.920; -381.121; -326.782
551.790;   60.214; -173.109; -127.803
552.070;  491.451;  940.877; 1181.223
552.350;  523.108; -492.119; -377.786
552.630;  786.174;   -2.121;   77.219
552.909;  522.541;  181.884;   73.209
553.189;  327.754;  -49.132;   33.237
553.469;  212.807; -703.119; -514.786
553.749;  211.412; -469.127; -357.772
554.029;  236.329;   33.883;  -24.790
554.308;  187.956; -154.115;  -37.794
554.588;   90.202; -196.128; -204.770
554.868;   61.083; -366.121;  -47.782
555.147;  211.452; -114.115;  -46.793
555.427;  859.044; -260.116; -250.792
555.707; 5199.449; -284.115; -200.793
555.986; 6133.698; -719.111; -538.800
556.266; 3306.333;   23.884;   72.210
556.546;  103.480; -888.121; -675.782
556.825;  291.461; -657.114; -556.794
557.105; 2425.899; -125.128;   17.230
557.384; 2753.339;  122.884;  187.209
557.664; 1024.843; -717.116; -508.792
557.943;  124.982; -557.121; -411.782
558.222;  225.319; -345.118; -344.788
558.502;  395.854; -116.115;  -76.793
558.781;  690.348;  194.885;  499.208
559.061;  476.619; -232.118; -227.788
559.340;  396.626;  302.883;  353.211
559.619;  945.833;   93.884;  148.210
559.899; 1273.628; -239.117; -266.789
560.178; 1218.053; -778.115; -593.793
560.457; 4284.730; -623.117; -562.790
560.736; 5584.900; -472.111; -482.800
561.015; 3862.296; -500.128; -502.769
561.295;  507.641;  180.893;  215.193
561.574;  473.950;  119.885;  116.207
561.853;  695.420;  274.891;  303.197
562.132;  717.656;  -45.114;  182.206
562.411;  646.874;  396.879;  553.219
562.690;  155.347; -592.115; -458.792
562.969;  292.680;  472.888;  630.203
563.248; 1052.471; 2966.878; 2487.219
563.527;  351.899; -290.111; -408.800
563.806;  440.708; -650.127; -521.771
564.085;  507.561; -297.105; -206.810
564.364;  273.632; -594.117; -405.790
564.643;  684.375; -276.121; -223.781
564.922; 2490.612;  221.890;  397.198
565.201; 2373.017; -640.109; -700.803
565.479; 1060.246; -297.115; -219.792
565.758;  397.199; -810.128; -712.770
566.037;  646.318; -155.109; -100.803
566.316;  343.440; -286.116;  -28.791
566.595;   83.949;  -17.115;  -12.793
566.873;  203.902; -166.111;  -79.801
567.152; -133.721; -490.113; -590.797
567.431;   30.634; -113.116;    6.210
567.709;   -1.959; -344.107; -212.807
567.988;  264.561; -810.114; -769.794
568.266;  693.949; -160.115;  -68.793
568.545;  476.624; -644.100; -514.819
568.824;  802.245;  160.885;  356.208
569.102;  650.661; -351.114; -235.794
569.381;  289.644; -492.116; -407.792
569.659; -101.826; -553.113; -553.796
569.938;   21.569; -743.122; -465.780
570.216;  146.822; -225.109; -225.804
570.494;  -54.335; -632.114; -572.795
570.773;   64.180;  202.879;  114.218
571.051;  -31.745; -373.123; -357.778
571.330;   88.171; -221.113; -174.796
571.608;   70.048; -181.098; -173.823
571.886; -151.709; -671.111; -581.799
572.164; -135.517; -739.121; -621.782
572.443; -108.034; -562.105; -512.811
572.721;  -38.570; -399.117; -289.790
572.999;  -52.978; -280.117; -168.788
573.277;  194.958;  379.894;  620.191
573.555;  408.660;   94.894;   37.190
573.834; 1741.721;  -86.117; -114.788
574.112; 2118.244;  880.893;  811.193
574.390;  641.201; -143.111;  -96.801
574.668;   22.180;  -91.112;  -61.797
574.946;  -32.139; -165.106; -187.810
575.224;   50.617;   71.891;  -16.803
575.502;  -21.563; -200.116; -204.791
575.780; -178.618; -767.112; -829.798
576.058;  519.099; 1589.889; 1004.200
576.336;  -60.993; -210.110; -129.801
576.614; -124.818; -511.112; -340.798
576.891;   37.455; -711.115; -823.794
577.169;  654.933; -158.108; -285.805
577.447;  774.844;  169.893;  202.193
577.725;  469.288;  629.888;  854.201
578.003;    9.585;  -71.112; -371.798
578.280;  128.778; -208.104; -242.812
578.558;   71.254; -450.115; -422.793
578.836;  211.265; -210.114; -145.795
579.114;   18.180; -630.112; -670.797
579.391;  116.624;   -6.117;  -18.789
579.669; -166.644; -595.114; -704.794
579.947;  248.839; -326.107; -127.806
580.224;  357.639; -692.107; -524.806
580.502;  443.945;  127.893;   76.193
580.779;   50.832;  -42.117;   75.210
581.057; -158.278; -584.109; -470.804
581.334; -207.802; -726.102; -695.815
581.612;  114.262;   54.895;  511.190
581.889;  -34.184;  -83.101; -129.818
582.167;  -87.065; -298.099; -190.821
582.444; -220.492; -845.102; -814.817
582.721;  229.609;  657.899;  715.183
582.999;   65.631; -326.100; -167.821
583.276;  639.860; -812.123; -713.779
583.553;  877.402; -364.102; -294.816
583.831;  278.374; -607.104; -631.812
584.108;   88.830;  349.892;  174.195
584.385;  -19.103; -122.102;  -98.815
584.662; -126.098; -651.111; -828.801
584.940;   41.801;  204.889;  204.199
585.217;  -49.027;  -73.113; -303.796
585.494;   80.313;   71.890;  118.198
585.771;  286.423; -250.109; -354.804
586.048;  637.073; -196.113;  -76.796
586.325;  379.006; -721.110; -773.801
586.602;  161.679;  230.896;  213.188
586.879;  -56.273; -499.100; -580.820
587.156;   33.863; -156.105; -331.810
587.433; -100.394; -701.102; -667.817
587.710;  111.183;  152.888;  234.202
587.987;  404.570; -264.105; -236.811
588.264; 1057.185;  315.888;  387.202
588.541; 1950.382;  -61.104;   26.187
588.818; 3573.126;   72.892;  171.196
589.095; 3061.076; -163.104; -174.812
589.371;  476.321; -459.109; -414.804
589.648;  -31.056; -581.107; -437.807
589.925;    2.466; -517.114; -621.795
590.202;    7.482; -741.112; -607.798
590.478;  133.272; -166.105;  -73.811
590.755;  379.934; -241.108; -132.806
591.032; 3308.109; -741.110; -699.802
591.308; 4325.901; -732.094; -790.831
591.585; 2346.708; -573.110; -560.802
591.862;  100.008;-1056.102; -950.817
592.138;   28.231; -475.108; -474.805
592.415;  182.080; -486.104; -495.813
592.691; 2044.177;  460.896;  518.188
592.968; 2464.350; -208.098; -123.824
593.244; 1170.635; -695.116; -595.790
593.521;  111.508; -105.102;  -42.817
593.797;  -90.035; -810.122; -720.780
594.074;  374.367; -611.096; -588.826
594.350;  979.982;  828.905;  729.172
594.626;  447.203; -303.111; -283.801
594.903;   62.809; -643.101; -645.817
595.179;  273.185;  243.896;  418.187
595.455;   -0.254; -136.107; -150.807
595.731;    6.187;  -19.103;  -38.814
596.008;  -76.205; -464.111; -434.800
596.284;   61.230; -187.100; -242.820
596.560;   44.410; -501.093; -493.833
596.836;  285.165; -173.105;  -70.810
597.112;  443.332; -582.108; -437.805
597.388;  373.164;  -49.097;  -48.826
597.665;  218.677;  437.887;  530.203
597.941; -117.251; -572.089; -658.839
598.217;   27.213; -323.110; -293.802
598.493;  338.625;   61.891; -204.804
598.769;  622.822; -175.100;  -50.819
599.045;  370.336; -490.108; -562.806
599.321;   42.528; -193.100; -261.820
599.597;  179.225; -355.109; -476.804
599.872;  647.482;  409.896;  429.187
600.148;  498.966;  -61.097; -172.826
600.424;  411.742;   91.893;  202.193
600.700;  291.245; -170.107; -280.807
600.976;  107.159; -442.097; -464.825
601.252;  333.620; -226.109; -272.803
601.527;  182.483; -833.104; -840.813
601.803;  156.773; -453.105; -404.812
602.079;  255.122; -124.100; -118.819
602.354;  725.723; -620.092; -531.835
602.630; 1072.773; -140.113; -482.796
602.906; 3124.316; -910.101; -863.818
603.181; 8692.608; -627.119; -534.786
603.457; 7424.663;   98.903; -278.826
603.733; 1061.985; -605.120; -626.783
604.008; 1384.961; -245.106; -164.810
604.284; 3876.611; -636.101; -580.817
604.559; 3533.188;   -3.112;  -42.799
604.835;  696.965; -163.105; -225.810
605.110;  473.535; -732.099; -892.821
605.385;  972.714;  224.907;  267.167
605.661;  802.986; -625.095; -729.829
605.936; 1372.636; -664.108; -737.806
606.211; 1294.796;  -17.103; -170.815
606.487;  253.159; -329.114; -376.794
606.762;  -19.992; -791.119; -745.786
607.037;  -64.635; -501.105; -433.810
607.313; -111.023; -589.096; -574.828
607.588;    2.161; -375.106; -137.810
607.863;   47.915;  -28.101; -143.818
608.138;  329.311;  513.890;  516.198
608.413;  -10.459; -576.099; -592.822
608.688;   45.031; -203.108; -267.805
608.964;  239.353; -509.106; -218.809
609.239;  313.762; -107.105; -212.810
609.514;  401.072;  281.895;  240.188
609.789;  828.078; -187.104; -716.812
610.064; 1113.675; -435.096; -609.827
610.339; 1058.721; -855.109; -799.804
610.614; 1555.129; -131.100; -315.820
610.889;  907.173;  215.895;  107.188
611.163;   -6.326; -407.104; -591.812
611.438;  117.161;   81.886; -167.794
611.713;  -53.089; -467.101; -499.817
611.988;   69.414; -144.101; -328.818
612.263;  -93.202; -771.102; -717.815
612.538;  357.073;  385.887;  251.204
612.812;  130.931; -832.100; -911.820
613.087;  119.047; -358.098; -338.823
613.362; -119.854; -497.107; -557.807
613.637;   92.790;  261.897;  138.186
613.911;  -21.376; -256.092; -345.835
614.186;  121.843; -249.107; -292.807
614.460;  801.749; -842.081; -758.854
614.735; 1000.180;  -55.087;  -17.843
615.010;  227.567;   43.912;  -82.841
615.284;  424.831;  360.892;  246.195
615.559;  395.522; -792.092; -955.835
615.833;  404.338;  -76.099;  -87.822
616.108;   14.338; -225.090; -390.837
616.382;  238.082;  274.913;  402.156
616.656;  189.539; -241.090; -232.837
616.931;  593.839; -785.099; -700.822
617.205; 1304.884; -973.104; -979.813
617.480; 1265.133;  -91.125;    6.225
617.754;  205.230; -396.125; -128.774
618.028;  -16.609; -369.129; -382.768
618.302;  123.029;   73.892;  -25.805
618.577;  -95.108; -371.103; -518.815
618.851; -135.584; -399.109; -600.803
619.125; -107.569; -335.134; -378.759
619.399;  -31.416; -244.104; -374.813
619.673;  -64.055; -330.115; -515.792
619.947; -100.636; -333.114; -448.795
620.222;  -11.196; -198.110; -204.801
620.496;   22.482;  -47.121;  -96.782
620.770;   16.871; -187.122;  -93.781
621.044;  349.663;  323.895;  346.190
621.318;  950.186; -653.120; -614.783
621.592;  840.783; -430.121; -409.783
621.866;  406.389; -476.112; -572.799
622.140;   27.937; -207.116; -356.791
622.413;   85.595;  138.889;  112.200
622.687; -102.889; -746.101; -492.817
622.961;   49.129; -130.108; -143.805
623.235; -146.704; -633.111; -661.800
623.509; -218.228; -816.105; -848.811
623.783;   47.640;  -12.107;   48.193
624.056;  -33.612; -254.120; -280.783
624.330;  121.980;   63.888;   -3.797
624.604;   54.832; -271.116; -355.790
624.877;  133.310;  180.890;   26.198
625.151;   46.357; -249.114; -238.794
625.425;  -43.113; -150.103; -283.814
625.698; -108.200; -367.119; -374.785
625.972; -168.987; -799.110; -765.802
626.245;  190.535;  685.884;  484.210
626.519;  -76.607; -426.120; -340.784
626.792;  -65.655; -192.107; -380.807
627.066; -185.838; -485.122; -662.779
627.339; -204.393; -736.110; -663.802
627.613;  113.491;  351.880;  148.216
627.886;  123.115;  187.891; -612.803
628.160;  -23.114;  312.880; -161.783
628.433; -190.963; -695.125; -703.775
628.706; -183.207; -517.120; -615.784
628.979;   65.646;  296.876;  117.223
629.253; -181.693; -785.119; -833.786
629.526;  423.816; -334.126; -253.772
629.799;  347.655; -641.123; -479.778
630.072;  173.093; -497.128; -516.769
630.346; -179.265;-1115.116;-1080.790
630.619;  563.047; -467.107; -545.808
630.892;  853.097;  709.889;  593.200
631.165;  536.984;  790.896;  679.187
631.438; -192.015;-1092.112;-1055.798
631.711;  128.159;  453.877;  257.221
631.984;  -94.572; -523.117; -624.789
632.257; -126.176; -636.117; -681.789
632.530;  -74.399; -412.119; -433.785
632.803;   51.155; -109.115;    7.207
633.076; -139.949; -360.123; -422.777
633.349;   30.398;  173.872;  121.231
633.622;  -71.101; -187.119; -240.785
633.895; -260.612; -903.120; -823.783
634.167; -108.881; -496.126; -525.773
634.440;   -5.157;  -19.116; -137.792
634.713;   -8.595;  -22.119; -120.786
634.986;  186.684;  593.871;  453.233
635.258; -140.948; -507.115; -597.793
635.531;  242.518;  742.882; -343.788
635.804;  -51.973; -303.117; -318.789
636.077; -188.062; -830.116; -852.791
636.349;  -65.350; -586.115; -474.793
636.622;  727.915; 1695.874; 1392.228
636.894;  254.394; -474.120; -909.784
637.167;   80.607; -836.127; -789.771
637.439;   61.502; -278.128; -213.770
637.712;  -78.682; -312.126; -293.772
637.984; -183.561; -635.116; -707.791
638.257;  629.051;  515.877;  488.222
638.529;  679.738; -881.125; -924.776
638.802;  313.992; -508.128; -449.769
639.074; -246.730; -927.122; -952.781
639.346; -249.480; -942.135; -930.757
639.619;   17.333;  -79.142; -319.744
639.891;   19.262;  -83.122; -168.779
640.163; -130.536; -689.122; -756.780
640.435;   61.867;  273.878;  103.220
640.708;   17.569;  -72.122; -132.780
640.980;  -60.228; -366.122; -362.781
641.252;  308.974;  -25.121;  -71.781
641.524; 2522.677;  580.879;  573.219
641.796; 2385.179;-1094.121; -907.782
642.068;  451.082; -191.121; -300.782
642.340; -115.316; -486.121; -566.783
642.613;  118.786;  294.880;  323.217
642.885; -161.311; -787.120; -878.783
643.157; -115.309; -810.120; -658.784
643.428;  130.394;  170.880;  218.216
643.700; -108.404; -498.120; -425.784
643.972;  -36.101;  -16.119; -133.785
644.244; -150.499; -474.119; -559.785
644.516;  -61.997; -250.119; -114.786
644.788;  170.706;  662.881;  548.214
645.060;  -22.392;  -12.119; -124.786
645.332; -179.889; -525.118; -535.787
645.603;  111.113;  479.882;  342.213
645.875;  -94.184; -334.118; -369.787
646.147;  384.618; 1487.882; 1242.212
646.418; -163.879; -931.117; -918.788
646.690;  102.323; -714.117; -715.789
646.962;   -2.075; -413.117; -451.789
647.233;   23.728;   15.883;   11.211
647.505; -158.870; -595.117; -475.790
647.776;  114.633;  328.884;  229.210
648.048;  -22.465; -248.116; -418.790
648.320; -158.962; -752.116; -679.791
648.591; -265.160;-1055.116; -958.791
648.862; -157.157; -505.116; -577.792
649.134;   77.245;  115.885;  198.208
649.405; -105.553; -661.115; -618.792
649.677;  -92.250; -475.115; -598.793
649.948;  -20.348; -181.115; -296.793
650.219;   38.955;  -37.115; -147.793
650.491; -152.343; -431.114; -520.794
650.762; -215.940; -705.114; -731.794
651.033; -152.038; -437.114; -424.795
651.304; -191.635; -743.114; -728.795
651.576; -148.133; -680.114; -645.795
651.847;  -60.731; -250.113; -140.796
652.118;  -15.628;  -32.113; -189.796
652.389; -177.726; -639.113; -722.796
652.660;  -28.623; -147.113;  -89.797
652.931; -230.221; -897.112; -871.797
653.202; -143.918; -382.112; -541.798
653.473; -119.916; -633.112; -533.798
653.744;  169.187; -595.112; -590.798
654.015;  158.089; -356.112; -303.799
654.286; -119.409; -642.111; -663.799
654.557; -127.506; -586.111; -521.799
654.828; -329.004;-1114.111;-1088.800
655.099; -102.101; -404.111; -291.800
655.370; -152.299; -427.111; -543.801
655.641; -221.596; -656.110; -714.801
655.911; -186.494; -618.110; -638.801
656.182;  155.808;  437.890;  387.198
656.453;  250.411;  830.890;  746.198
656.724; -129.287; -466.110; -426.802
656.994; -140.484; -553.109; -568.803
657.265; -214.582; -862.109; -873.803
657.536; -133.679; -500.109; -377.804
657.806; -174.377; -561.109; -593.804
658.077; -245.074; -866.109; -950.804
658.347; -132.872; -523.108; -598.805
658.618; -218.370; -646.108; -694.805
658.888;    4.333;  -41.108;  112.195
659.159; -127.865; -432.108; -548.806
659.429;  -24.762; -292.108; -349.806
659.700;   -1.460; -435.107; -390.807
659.970;  -41.657; -370.107; -359.807
660.241;  -11.755; -754.107; -921.807
660.511;  665.048; -147.107; -174.808
660.781;   83.050; -793.106; -748.808
661.052;  -74.548; -222.106; -381.808
661.322;   -5.645;   21.894;   -9.809
661.592;   66.957;  257.894;  148.191
661.862; -115.840; -369.106; -382.810
662.133; -163.338; -551.105; -502.810
662.403; -234.435; -770.105; -676.810
662.673;  -72.233; -256.105; -213.811
662.943; -167.730; -612.105; -551.811
663.213;   -6.028;  -85.105;  -81.811
663.483; -154.026; -593.104; -568.812
663.753;  -68.123; -194.104; -152.812
664.023;   27.479;   68.896;  -32.813
664.293;  -91.818; -319.104; -126.813
664.563; -197.216; -694.104; -648.813
664.833; -190.213; -743.103; -608.814
665.103; -217.211; -730.103; -793.814
665.373; -213.809; -766.103; -806.814
665.643; -208.406; -863.103; -918.815
665.913;  -15.804; -534.103; -714.815
666.182;  131.599; -685.102; -719.816
666.452;  344.501;  -22.102;  -89.816
666.722; -103.096; -724.102; -784.816
666.992; -242.794; -948.102; -921.817
667.261; -174.091; -824.102; -808.817
667.531;  330.311;  134.899;   45.183
667.801;  726.113; -440.101; -412.818
668.070;  425.316;  714.899;  697.182
668.340; -186.582; -883.101; -840.819
668.609;  207.421;  588.900;  301.181
668.879; -158.977; -490.100; -558.819
669.149; -116.974; -539.100; -516.820
669.418; -184.772; -698.100; -726.820
669.688;  -61.569; -482.100; -666.820
669.957;   80.733; -423.099; -546.821
670.226;  -52.365; -268.099; -331.821
670.496; -156.062; -431.099; -635.822
670.765; -122.060; -418.099; -501.822
671.034; -270.757; -872.099; -828.822
671.304;   29.245;   55.902; -111.823
671.573; -307.752;-1085.098; -957.823
671.842;  132.850; -380.098; -294.823
672.112;   -3.747; -692.098; -586.824
672.381;   -3.245; -239.098; -214.824
672.650; -251.843;-1005.097;-1021.825
672.919; -141.940; -631.097; -507.825
673.188; -174.138; -681.097; -878.825
673.457; -287.135;-1101.097;-1143.826
673.726; -144.233; -579.096; -646.826
673.995;  -96.130; -533.096; -479.826
674.265;  -55.628; -263.096; -333.827
674.534;    2.974; -183.096; -235.827
674.802;  -49.823; -618.096; -703.828
675.071; 1393.679; -886.095; -801.828
675.340; 4869.882; -464.095; -339.828
675.609; 1738.084;  103.905;   82.171
675.878;   33.787; -949.095; -893.829
676.147;   46.889;  -26.095;   -8.829
676.416;  111.192; -210.094; -294.830
676.685; 1099.494; 1000.906; -622.830
676.953;  102.896; -603.094; -452.831
677.222;  -48.201; -193.094; -273.831
677.491;   -6.399;  -24.094; -127.831
677.759;    6.304;   11.907;  172.168
678.028;  -53.294; -279.093; -222.832
678.297;   36.009;   71.907;  197.168
678.565; -273.989; -898.093; -944.833
678.834;  -21.486; -311.093; -268.833
679.102; -128.984; -411.092; -391.834
679.371; -267.582; -898.092; -727.834
679.639; -231.379; -797.092; -786.834
679.908; -248.277; -794.092; -724.835
680.176; -269.574; -895.091; -941.835
680.445;  -80.472; -346.091; -352.835
680.713;   -9.569;  -58.091;  -23.836
680.982; -159.767; -523.091; -525.836
681.250; -165.364; -578.091; -507.837
681.518; -167.562; -534.090; -751.837
681.787;   -3.960; -204.090; -167.837
682.055;  -85.457; -490.090; -422.838
682.323; -242.555; -993.090; -992.838
682.591;   72.848; -216.090; -538.838
682.859;  101.950;    9.911;  -35.839
683.128;   95.153;  232.911;  497.161
683.396; -336.145;-1102.089;-1122.840
683.664;  -30.242; -241.089;   21.160
683.932;   74.260;  144.911;  -76.840
684.200; -134.238; -576.088; -320.841
684.468;  -25.535;  -73.088; -124.841
684.736;  -38.433; -214.088; -175.841
685.004; -231.030;-1024.088; -982.842
685.272; -112.228; -880.088; -774.842
685.540; -131.725; -499.087; -557.843
685.808; -146.323; -651.087; -682.843
686.076; -187.821; -894.087; -969.843
686.343; -117.918; -601.087; -815.844
686.611;   79.884; -195.087; -224.844
686.879;  660.787; -530.086; -553.844
687.147; 4156.489; -483.086; -480.845
687.414; 1176.792;  -12.086; -169.845
687.682;  -19.006; -658.086; -757.846
687.950;  413.097;  259.915;  263.154
688.217;  -47.801; -792.085; -760.846
688.485;  -33.399; -632.085; -636.847
688.753;  689.004;  -11.085; -102.847
689.020;  144.906; -820.085; -851.847
689.288; -207.591; -853.084; -787.848
689.555;  -20.389; -195.084; -148.848
689.823;  -46.886; -241.084; -345.849
690.090; -127.684; -546.084; -651.849
690.358; -288.481; -877.084; -897.849
690.625;   62.921;  120.917;   45.150
690.892; -170.177; -403.083; -369.850
691.160;   20.126;   72.917;  -35.850
691.427;   34.928;  141.917;  130.149
691.694; -233.269; -855.083; -929.851
691.962; -301.367;-1177.082;-1060.852
692.229;   49.236;  127.918;   56.148
692.496;  113.238;  130.918;  -49.852
692.763;   29.041; -164.082; -201.853
693.031; -140.957; -739.082; -716.853
693.298;  -82.455; -509.081; -368.853
693.565;  452.648; -155.081; -163.854
693.832; 1529.450;   -5.081;   -9.854
694.099;  154.253; -643.081; -642.855
694.366; -138.345; -882.081; -896.855
694.633; -131.242; -920.080; -633.855
694.900; 1558.560; 4367.920; -114.856
695.167;  547.662; -214.080; -380.856
695.434;   95.665; -646.080; -623.856
695.701;  324.067;  121.921;  -61.857
695.968;  633.770; -365.079; -361.857
696.234; 1548.172; -415.079; -646.858
696.501;15128.475; -776.079; -614.858
696.768; 7121.777; -554.079; -617.858
697.035;  438.280; -632.078; -667.859
697.302;   21.282; -448.078; -552.859
697.568;   -4.216; -458.078; -497.859
697.835;  -77.813; -683.078; -624.860
698.102;  -46.811; -498.078; -407.860
698.368;  186.792;  384.923;  396.139
698.635;  -53.906;  -47.077; -424.861
698.901;   -9.703; -240.077; -348.861
699.168;   92.199; -534.077; -456.862
699.435;  115.302;  -72.077;  -13.862
699.701; -200.096; -868.076; -764.862
699.968;  -81.394;  144.924; -441.863
700.234; -165.491; -783.076; -822.863
700.500;  -62.789; -448.076; -539.864
700.767;   38.614;   -1.075;   26.136
701.033; -217.084;-1015.075; -963.864
701.299; -111.781; -450.075; -483.865
701.566;  255.621;  950.925;  763.135
701.832;   94.024;  -31.075;  -76.865
702.098; -224.774;-1054.074;-1034.866
702.365; -204.072;-1098.074;-1030.866
702.631; -104.469;-1038.074;-1063.867
702.897; 1951.233; -765.074; -676.867
703.163; 2937.336;  348.926;  254.133
703.429;  228.138; -256.073; -273.868
703.695;  -99.559; -796.073; -792.868
703.961;   22.643; -214.073; -210.868
704.227; -136.655; -630.073; -725.869
704.493;  280.848;  613.927;  510.131
704.759;  -67.950; -565.072; -540.870
705.025;   50.153; -203.072; -194.870
705.291;  -27.845; -666.072; -562.870
705.557;  386.358;  719.928;   34.129
705.823;   44.960; -742.072; -694.871
706.089;  227.963; -307.071; -326.871
706.355;  652.065; -315.071; -244.872
706.620; 8825.167; -776.071; -729.872
706.886;10717.370; -309.071; -362.873
707.152;  955.172; -818.070; -973.873
707.418;  -73.225;-1153.070;-1186.873
707.683;    4.877; -550.070; -530.874
707.949;  -75.620; -547.070; -578.874
708.215;   23.482; -129.070; -207.874
708.480;  -29.515; -520.069; -420.875
708.746;  166.787;   68.931;   28.125
709.011; -123.011; -578.069; -612.876
709.277; -107.008; -538.069; -543.876
709.542;  -50.606; -428.069; -387.876
709.808;   15.697;  -59.068;   89.123
710.073; -158.601; -577.068; -695.877
710.339;  -22.998; -242.068; -228.877
710.604;   58.804; -780.068; -845.878
710.869;  426.607; -277.068; -366.878
711.135; -147.091; -715.067; -628.879
711.400; -134.489; -507.067; -608.879
711.665; -111.186; -404.067; -479.879
711.931; -136.584; -661.067; -677.880
712.196; -218.481; -876.067; -954.880
712.461;  126.821; -402.066; -490.880
712.726;  123.624; -727.066; -771.881
712.991; -171.274; -647.066; -664.881
713.256;  -37.771; -350.066; -332.882
713.521;  -88.469; -417.065; -381.882
713.787;  -84.767; -454.065; -472.882
714.052;   -5.064; -214.065; -400.883
714.317; -194.762;-1045.065; -981.883
714.581; 1577.641; -374.065; -268.883
714.846; 1913.343; -822.064; -888.884
715.111;  253.746;  261.936;  257.116
715.376;  -45.952;  -86.064; -223.885
715.641;  -17.050; -365.064; -367.885
715.906;  361.853;   15.936; -551.885
716.171;  271.455;  221.937;  209.114
716.436;   82.758;  -78.063; -104.886
716.700; -157.340; -818.063; -692.886
716.965; -224.237; -794.063; -807.887
717.230; -116.435; -339.063; -392.887
717.494;  -15.332;  -40.062; -134.888
717.759; -168.830; -784.062; -640.888
718.024;   63.872;  269.938;  250.112
718.288;  175.275;  685.938;  395.111
718.553; -244.523; -803.062; -977.889
718.817; -255.320; -883.061; -899.889
719.082;  -34.518; -115.061; -125.890
719.346; -256.615;-1000.061; -947.890
719.611;  -52.213; -300.061; -255.891
719.875; -153.610; -568.060; -537.891
720.140; -100.608; -453.060; -603.891
720.404;   70.894; -136.060; -249.892
720.668; 1113.697; -475.060; -411.892
720.933;  442.399;  146.940;  137.108
721.197; -162.098; -667.059; -600.893
721.461; -236.496; -851.059; -826.893
721.725;   23.407;  -21.059; -250.894
721.990;  -85.091; -284.059; -204.894
722.254;  -17.888;  -26.059; -108.894
722.518;  -97.486; -286.058; -442.895
722.782; -133.784; -743.058; -594.895
723.046;  270.519;  614.942;  570.105
723.310;  109.121;  374.942;  210.104
723.574; -143.476; -654.058; -614.896
723.838; -182.774; -576.057; -642.897
724.102;  -45.471; -226.057; -239.897
724.366; -258.369;-1032.057; -978.897
724.630; -158.667; -749.057; -571.898
724.894; -122.064; -722.057; -514.898
725.158;   46.838;   38.944; -295.898
725.422;  -74.159; -394.056; -327.899
725.685; -117.757; -441.056; -349.899
725.949; -163.454; -566.056; -519.900
726.213; -127.952; -732.056; -811.900
726.477;  177.651;-1020.055; -933.900
726.740;  208.753; -274.055; -104.901
727.004;  521.155; -384.055; -510.901
727.268; 4782.558; -442.055; -400.901
727.531; 1186.960; -961.055; -775.902
727.795;  -91.437; -713.054; -673.902
728.059;  -93.235; -552.054; -557.903
728.322; -173.932; -841.054; -669.903
728.586;   33.670; -692.054; -701.903
728.849; -127.627; -695.053; -756.904
729.112; -220.425; -812.053; -912.904
729.376; -232.523; -959.053; -905.904
729.639; -153.720; -536.053; -536.905
729.903; -172.018; -733.053; -699.905
730.166;  -56.915; -437.052; -399.906
730.429;    2.887; -317.052; -468.906
730.693; -128.610; -355.052; -894.906
730.956;  446.592;  810.948;  651.093
731.219;  941.295; -310.052; -103.907
731.482;  108.097;-1003.051; -894.907
731.745;   36.899; -794.051; -935.908
732.009;   53.202;  -30.051;   50.092
732.272; -158.796; -904.051; -771.909
732.535;  -51.593; -300.051; -310.909
732.798; -316.691;-1083.050;-1166.909
733.061; -103.488; -430.050; -456.910
733.324;   59.814;   31.950; -180.910
733.587;  152.216;  290.950;  365.090
733.850; -127.781; -973.049;-1050.911
734.113;   81.121;   33.951;   32.089
734.376;   -3.876; -328.049; -447.912
734.639;  465.226; 1188.951; 1011.088
734.901;  107.329; -180.049; -402.912
735.164;  710.431; -883.048; -837.913
735.427; 1640.734; -166.048; -355.913
735.690;  183.036; -205.048; -234.913
735.952;  -89.562; -923.048; -925.914
736.215; -111.759;-1113.048;-1009.914
736.478;    0.843; -771.047; -774.915
736.740;  364.946;   33.953;  129.085
737.003; 1071.448; -658.047; -672.915
737.266; 5194.551;  -94.047;   46.084
737.528;  570.953; -682.047; -660.916
737.791;  459.156; -316.046; -327.916
738.053; 1328.358;  465.954;  649.083
738.316;16350.160; -162.046; -136.917
738.578; 9722.563; -770.046; -736.918
738.841;  578.565; -382.046; -446.918
739.103;  256.268; -875.045; -777.918
739.365;  720.170;   79.955;  -69.919
739.628;  -56.027; -884.045; -805.919
739.890;  -72.825; -758.045; -710.919
740.152;  -72.022; -692.044; -754.920
740.414;  -24.320; -408.044; -359.920
740.677; -103.118; -785.044; -634.921
740.939;  -66.015; -587.044; -487.921
741.201;  346.787; -432.044; -572.921
741.463;   -7.010; -689.043; -745.922
741.725;   64.692;  -21.043; -199.922
741.987;  151.595;  220.957;  116.078
742.249;  -42.503; -751.043; -859.923
742.511;  262.000; -703.043; -794.923
742.773;   17.702; -546.042; -546.924
743.035;  279.804;  796.958;  533.076
743.297; -102.493; -963.042;-1013.924
743.559; 1005.609; -278.042; -262.925
743.821;   -3.288; -735.042; -744.925
744.083;   -9.686;  -44.041; -149.925
744.345; -174.683; -869.041; -892.926
744.607;   76.119;   75.959;  122.074
744.868;  -67.379; -490.041; -554.927
745.130; -186.676; -994.041;-1008.927
745.392;   87.526;   -1.040;  -44.927
745.653;  -31.971; -411.040; -378.928
745.915;  303.531;  896.960;  631.072
746.177;  122.434;   35.960;  -43.928
746.438;  -20.564; -428.040; -543.929
746.700; -113.661; -947.039; -988.929
746.961;   -0.359; -659.039; -740.930
747.223;  204.843; -190.039;  -74.930
747.484;  135.046; -391.039; -471.930
747.746;  227.148;  -23.038; -106.931
748.007;  126.051; -647.038; -689.931
748.269;  452.253; -468.038; -440.931
748.530;  569.656; -852.038; -638.932
748.791;  391.858; -354.038; -420.932
749.053;  724.461;  286.963;  163.067
749.314;  683.063; -236.037; -169.933
749.575;  615.465; -945.037; -905.933
749.836; 1285.968; -217.037;   86.066
750.098; 4057.470;  -60.037;  -21.934
750.359;50542.773;  414.964;  555.066
750.620;11109.075; -121.036; -220.935
750.881; 1416.178; -585.036; -513.935
751.142; 1954.780; -950.036; -938.936
751.403;24400.983; -789.036; -705.936
751.664; 8901.985;-1034.035; -999.936
751.925;  689.887; -175.035; -262.937
752.186;  389.590; -298.035; -278.937
752.447;  188.792; -590.035; -445.937
752.708;   51.395; -532.035; -648.938
752.969;   22.197; -566.034; -576.938
753.230;  -16.100; -777.034; -672.939
753.491;    9.902; -650.034; -631.939
753.751;  158.204;  109.966;   19.061
754.012;  193.407;  258.967;  181.060
754.273;  104.909; -174.033;  -71.940
754.534;    8.012; -487.033; -580.940
754.794; -175.386; -926.033; -911.941
755.055;  363.617; 1051.967;  881.059
755.316; -104.181; -700.032; -566.942
755.576;  -35.078; -606.032; -576.942
755.837;  -91.776; -527.032; -695.942
756.097;  -66.074; -530.032; -564.943
756.358; -172.271; -725.032; -770.943
756.618;  -82.869; -705.031; -641.943
756.879;   10.834; -254.031; -349.944
757.139; -235.664;-1098.031;-1116.944
757.400;  -73.761; -538.031; -553.945
757.660;  -20.859; -365.031; -401.945
757.920;   52.444; -266.030; -228.945
758.181;   -3.554; -468.030; -351.946
758.441; -165.252; -870.030; -809.946
758.701;  -29.149; -308.030; -215.946
758.961;   14.953; -220.030; -278.947
759.222;  -47.444; -574.029; -502.947
759.482; -145.942; -683.029; -723.948
759.742; -160.839; -706.029; -547.948
760.002;   52.863;  -83.029; -143.948
760.262;   90.866;   50.972;  182.051
760.522;  -75.532; -498.028; -574.949
760.782; -122.630; -738.028; -612.949
761.042;  -59.127; -618.028; -573.950
761.302;  115.975;   55.972;  -18.950
761.562;  101.878; -164.027; -154.951
761.822;   88.180; -710.027; -551.951
762.082; -141.517;-1104.027;-1093.951
762.342;  121.785; -328.027; -403.952
762.601;   88.387; -567.027; -506.952
762.861;  505.490; -281.026; -207.952
763.121;  637.592; -406.026; -411.953
763.381;11610.795; -499.026; -485.953
763.640;10204.597; -139.026; -307.954
763.900;  495.300; -242.026; -203.954
764.160;  129.302; -458.025; -491.954
764.419;  -23.695; -726.025; -782.955
764.679; -134.793; -795.025; -726.955
764.939;    2.909; -124.025; -210.955
765.198; -108.488; -608.025; -563.956
765.458; -130.886; -710.024; -612.956
765.717; -125.583; -454.024; -590.957
765.976;  -71.681; -428.024; -411.957
766.236; -146.978; -475.024; -610.957
766.495;   92.824;  260.977;   73.042
766.755; -188.273;-1090.023; -987.958
767.014;   -1.971; -594.023; -665.958
767.273;  -58.969; -373.023; -397.959
767.533;  -24.566; -228.023; -307.959
767.792;    1.036; -151.022; -188.960
768.051;  -52.961; -228.022; -276.960
768.310; -130.859; -546.022; -650.960
768.569;   25.744; -161.022;    4.039
768.828;  -26.654; -285.022; -363.961
769.088; -209.851;-1050.021; -942.961
769.347; -131.149; -755.021; -599.962
769.606; -156.147; -876.021; -857.962
769.865; -226.544;-1016.021;-1033.963
770.124;   42.658; -411.021; -336.963
770.383;  -98.339; -778.020; -910.963
770.641;  -22.837; -398.020; -400.964
770.900; -126.634; -953.020; -846.964
771.159;  -95.332; -851.020; -951.964
771.418;  -61.529; -917.020; -779.965
771.677;  205.173; -224.019; -293.965
771.936;  187.475; -794.019; -865.966
772.194; 4062.778; -465.019; -437.966
772.453;15471.180; -213.019; -391.966
772.712; 1112.383;  416.982;  329.033
772.970;  240.585;   32.982;   63.033
773.229;  168.488;  -22.018;  102.033
773.488; -129.610; -814.018; -770.968
773.746;  172.592;  296.982;  335.032
774.005;   27.695;  190.983;  -22.969
774.263;   75.097;  243.983;  177.031
774.522; -146.100; -422.017; -548.969
774.780; -108.398; -484.017; -417.970
775.039; -132.695; -551.017; -531.970
775.297;   -8.893; -135.016; -351.970
775.555; -192.090; -489.016; -612.971
775.814; -182.588; -618.016; -570.971
776.072; -178.586; -749.016; -740.971
776.330; -167.083; -630.016; -520.972
776.589; -228.681; -703.015; -721.972
776.847; -193.578; -645.015; -624.973
777.105; -279.476;-1016.015;-1032.973
777.363; -110.973; -459.015; -454.973
777.621; -249.971; -660.015; -717.974
777.879;    1.932;  -42.014;   32.026
778.138; -130.966; -554.014; -717.974
778.396; -154.664; -585.014; -526.975
778.654; -298.561;-1015.014; -970.975
778.912;  -73.259; -269.014; -371.976
779.170; -214.756; -880.013; -803.976
779.427; -274.354; -922.013; -897.976
779.685; -238.951; -880.013; -832.977
779.943; -144.449; -654.013; -593.977
780.201; -285.046; -964.012; -883.978
780.459; -158.444; -651.012; -610.978
780.717; -112.542; -440.012; -390.978
780.974; -164.339; -449.012; -490.979
781.232; -115.437; -358.012; -338.979
781.490; -114.434; -551.011; -472.979
781.747; -118.032; -555.011; -476.980
782.005;  104.071;  462.989;  254.020
782.263; -300.627; -542.011;-1004.981
782.520; -144.325; -326.011; -501.981
782.778; -303.522;-1013.010;-1051.981
783.035; -293.220; -962.010; -938.982
783.293;  -96.717; -248.010; -206.982
783.550;  -34.115; -134.010; -198.982
783.808; -239.512; -764.010; -776.983
784.065; -294.810; -745.009; -874.983
784.322;  -35.607;   25.991;  -86.984
784.580; -227.205; -915.009; -771.984
784.837; -120.803; -392.009; -466.984
785.094; -209.700; -783.009; -762.985
785.352; -119.598; -304.008; -404.985
785.609; -206.395; -934.008; -839.985
785.866; -128.993; -345.008; -401.986
786.123; -112.990; -639.008; -583.986
786.380; -178.788; -665.008; -604.987
786.637;  -45.385; -225.007; -380.987
786.895;  -72.683; -456.007; -543.987
787.152;  -45.181; -135.007; -267.988
787.409;  -73.978; -123.007; -225.988
787.666; -149.376; -299.006; -378.988
787.923; -152.673; -616.006; -695.989
788.179; -162.371; -551.006; -584.989
788.436; -159.868; -585.006; -585.990
788.693;  -61.466;  -92.006;  -87.990
788.950;  266.937; -125.005; -112.990
789.207;  251.739; -381.005; -372.991
789.464;  -65.359; -161.005; -301.991
789.720;   79.844;  150.995;  110.009
789.977; -291.554;-1003.005; -671.992
790.234;    8.849;   44.996;  -66.992
790.490; -234.049; -884.004;-1031.993
790.747;   18.854;  -85.004;   22.007
791.004;  -64.644; -426.004; -348.993
791.260; -106.842; -430.004; -560.994
791.517; -180.539; -843.003; -788.994
791.773;  -87.637; -379.003; -342.994
792.030; -204.834; -596.003; -660.995
792.286; -163.832; -686.003; -636.995
792.543;   17.071;  -74.002; -159.995
792.799;  -53.827; -584.002; -382.996
793.055; -274.224;-1179.002;-1210.996
793.312; -181.722; -827.002; -816.997
793.568;  -99.920; -746.002; -599.997
793.824;   44.183; -226.001; -284.997
794.081;   30.085; -447.001; -508.998
794.337;   85.188; -664.001; -561.998
794.593; 2375.490; -319.001; -271.999
794.849; 8889.793; -746.001; -772.999
795.105;  388.895; -270.000; -261.999
795.361;    8.898; -490.000; -457.000
795.617; -148.700; -875.000; -945.000
795.873;  -96.000; -360.000; -407.000
796.129;  -31.100; -368.000; -306.000
796.385;   -9.200; -124.000; -156.000
796.641;  160.700;  412.000;  550.000
796.897; -122.400; -666.000; -635.000
797.153;  181.400;  453.000;  357.000
797.409; -185.200; -785.000; -868.000
797.665; -120.400; -625.000; -732.000
797.921; -139.100; -775.000; -762.000
798.176; -124.100; -744.000; -747.000
798.432;  -75.000; -824.000; -596.000
798.688; -163.600;-1174.000;-1078.000
798.943;  137.000; -165.000; -147.000
799.199;  -65.900;-1005.000; -959.000
799.455;  401.800;  369.000;  316.000
799.710;  134.000; -813.000; -380.000
799.966;  430.300; -162.000; -160.000
800.221;  704.900; -638.000; -721.000
800.477;16715.900; -743.000; -710.000
800.732;11259.100; -773.000; -800.000
800.988;  964.200;  205.000;  -19.000
801.243; 3521.900; -454.000; -344.000
801.498;11560.300; -814.000; -739.000
801.754;  678.000; -289.000; -163.000
802.009;  163.100; -257.000; -335.000
802.264; -127.700; -967.000;-1033.000
802.520;   61.900;  222.000;   -3.000
802.775;  -48.400; -524.000; -359.000
803.030;  161.300;  395.000;  356.000
803.285; -177.600; -840.000; -903.000
803.540;  -76.100; -686.000; -699.000
803.795; -108.500; -648.000; -583.000
804.051;  -36.400; -279.000; -346.000
804.306;   69.100;  168.000;  128.000
804.561;  280.100;  451.000;  362.000
804.816;  312.500;  714.000;  861.000
805.071;   53.400; -185.000; -280.000
805.325;  275.400; -257.000; -427.000
805.580; -188.000; -841.000; -877.000
805.835;   -5.900; -204.000; -297.000
806.090; -105.900; -760.000; -676.000
806.345;    0.200; -344.000; -264.000
806.600;  -44.300; -549.000; -632.000
806.854;  -55.000; -408.000; -538.000
807.109;   10.600; -493.000; -577.000
807.364;   -0.800; -407.000; -328.000
807.618;   12.000; -415.000; -381.000
807.873;   85.000; -470.000; -494.000
808.128;  153.900; -257.000; -518.000
808.382;  134.500; -224.000; -332.000
808.637;  120.400; -440.000; -511.000
808.891;  276.100; -257.000; -180.000
809.146;   76.900; -902.000; -794.000
809.400;  330.000; -848.000; -923.000
809.654;  471.400; -779.000; -551.000
809.909;  675.200; -841.000; -927.000
810.163;10879.400; -813.000; -651.000
810.418;21351.300; -940.000; -861.000
810.672; 1325.500; -685.000; -690.000
810.926;  990.100; -993.000; -973.000
811.180; 2237.900; -439.000; -372.000
811.434;48062.300;  240.000;  135.000
811.689;14479.500; -231.000; -365.000
811.943;  791.800; -936.000; -953.000
812.197;  466.200; -893.000; -671.000
812.451;  177.700; -379.000; -514.000
812.705;  -38.800; -809.000; -619.000
812.959; -100.700; -263.000; -388.000
813.213;   25.000; -283.000; -209.000
813.467;  186.000;  470.000;  253.000
813.721; -155.900; -764.000; -792.000
813.975; -210.700; -826.000; -877.000
814.229;  117.200;  430.000;  353.000
814.482; -114.400; -517.000; -566.000
814.736; -243.800; -766.000; -744.000
814.990; -228.400; -779.000; -872.000
815.244;  -54.100; -228.000; -285.000
815.497; -154.900; -636.000; -601.000
815.751;   44.000; -141.000;   82.000
816.005; -134.300; -470.000; -586.000
816.258;  -65.900; -510.000; -363.000
816.512; -162.700; -693.000; -610.000
816.766;   55.600;  121.000;  157.000
817.019;   63.600;  148.000;  149.000
817.273; -201.200;-1000.000; -802.000
817.526;    2.900; -206.000; -173.000
817.779; -109.300;-1049.000; -960.000
818.033; -183.000; -693.000; -807.000
818.286; -217.400; -725.000; -792.000
818.540; -161.700; -403.000; -403.000
818.793; -101.900; -402.000; -489.000
819.046; -207.200; -582.000; -520.000
819.299;  -12.200; -157.000; -166.000
819.553; -153.900; -552.000; -592.000
819.806; -298.800;-1016.000; -838.000
820.059;  -77.700; -334.000; -354.000
820.312;   67.100;  152.000;  185.000
820.565;   41.800;  110.000;  -27.000
820.818;  -52.300;  -59.000; -173.000
821.071; -260.700;-1041.000; -957.000
821.324; -194.200; -536.000; -540.000
821.577; -162.400; -457.000; -483.000
821.830;  -69.200; -270.000; -172.000
822.083; -218.700; -733.000; -288.000
822.336;  -48.100; -261.000; -167.000
822.589; -202.300; -805.000; -688.000
822.842; -247.900; -875.000; -770.000
823.094; -305.300;-1076.000;-1114.000
823.347; -232.500; -925.000; -729.000
823.600;   74.200;  402.000;  187.000
823.853;  -42.300; -311.000; -267.000
824.105; -105.200; -331.000; -575.000
824.358; -168.500; -617.000; -716.000
824.611;   76.000;  234.000;   40.000
824.863;  -89.900; -612.000; -591.000
825.116;  117.000;  -33.000;   27.000
825.368;   91.800; -366.000; -372.000
825.621;  227.100; -186.000; -240.000
825.873;   81.600; -704.000; -737.000
826.126; 1014.400; -669.000; -641.000
826.378;17487.000; -389.000; -505.000
826.630; 2962.200; -890.000; -898.000
826.883;   25.000; -754.000; -693.000
827.135;   96.700; -279.000; -270.000
827.387; -184.900; -893.000; -839.000
827.639;   32.700;  -86.000;   32.000
827.892; -232.100; -742.000; -582.000
828.144; -223.500; -848.000; -804.000
828.396;   -9.400;  104.000;  -80.000
828.648; -138.200; -440.000; -333.000
828.900; -220.600; -702.000; -795.000
829.152; -208.100; -684.000; -683.000
829.404;  -84.600; -215.000; -267.000
829.656;  -12.500;  321.000;  214.000
829.908;   42.300;  393.000;  229.000
830.160; -297.700;-1064.000;-1047.000
830.412; -139.100; -481.000; -430.000
830.664; -208.700; -557.000; -665.000
830.916;  -84.400; -268.000; -206.000
831.167; -302.800;-1073.000; -951.000
831.419; -167.400; -623.000; -566.000
831.671; -239.000; -764.000; -809.000
831.923; -113.500; -311.000; -447.000
832.174; -102.800; -273.000; -331.000
832.426; -166.800; -493.000; -582.000
832.678; -326.500;-1043.000;-1091.000
832.929; -297.100; -947.000; -935.000
833.181; -143.100; -575.000; -677.000
833.432;  -52.000;  -59.000; -186.000
833.684;   43.400;  112.000;  -27.000
833.935; -177.900; -610.000; -566.000
834.187; -206.100; -829.000; -823.000
834.438;  -20.300;  -58.000;  -25.000
834.689;  -53.900; -255.000; -123.000
834.941;  -44.600; -343.000; -244.000
835.192; -150.100; -590.000; -533.000
835.443; -154.400; -419.000; -506.000
835.695;   22.500;  138.000;  -16.000
835.946; -132.400; -608.000; -378.000
836.197; -171.400; -599.000; -622.000
836.448; -119.900; -528.000; -395.000
836.699;  -60.900; -253.000; -341.000
836.950;   39.900;   72.000;    7.000
837.201; -262.800;-1003.000; -987.000
837.452;  -23.500; -356.000; -170.000
837.703; -208.200; -791.000; -737.000
837.954;  -42.000; -205.000; -365.000
838.205; -168.400;-1029.000;-1008.000
838.456;  210.900; -196.000; -282.000
838.707;   27.900; -423.000; -519.000
838.958;    3.300; -634.000; -647.000
839.209;  397.900;   18.000;   40.000
839.460;  164.800; -439.000; -201.000
839.710;  245.900; -135.000; -297.000
839.961;  687.100;  730.000;  612.000
840.212;  421.000; -382.000; -497.000
840.462; 1823.900; -328.000; -277.000
840.713;26858.000; -571.000; -536.000
840.964; 8091.100;  -62.000; -143.000
841.214;  668.900; -384.000; -624.000
841.465;  753.500; -214.000; -141.000
841.715;  629.400; -417.000; -380.000
841.966;  834.800; -746.000; -685.000
842.216;14500.900; -330.000; -431.000
842.466;41971.100; -169.000; -313.000
842.717; 1648.100; -964.000; -952.000
842.967;  381.200; -635.000; -641.000
843.217;  401.700;   20.000;   28.000
843.468;  161.600; -104.000; -132.000
843.718;  -57.900; -718.000; -726.000
843.968; -180.900; -837.000; -765.000
844.218;   62.900; -315.000; -262.000
844.469; -104.100; -577.000; -561.000
844.719; -187.000; -537.000; -682.000
844.969; -126.500; -550.000; -580.000
845.219; -250.600; -814.000; -862.000
845.469;  -69.400; -392.000; -342.000
845.719; -226.600; -792.000; -884.000
845.969;   28.200;  119.000;  174.000
846.219; -175.100; -738.000; -720.000
846.469;  118.100;  464.000;  432.000
846.718;  -72.000; -115.000;   31.000
846.968; -240.700; -827.000; -827.000
847.218;  -41.300; -224.000; -371.000
847.468; -163.700; -586.000; -555.000
847.718; -237.000; -827.000; -798.000
847.967; -229.900; -826.000; -915.000
848.217; -132.300; -449.000; -569.000
848.467;  -59.100; -405.000; -376.000
848.716; -167.400; -708.000; -725.000
848.966;   -1.900; -372.000; -358.000
849.215;  -83.500; -428.000; -419.000
849.465; -145.000; -785.000; -615.000
849.714; -285.500;-1132.000;-1150.000
849.964;  -99.600; -551.000; -613.000
850.213;  -44.700; -393.000; -355.000
850.463;  160.400;  137.000;  340.000
850.712;   -6.300; -542.000; -567.000
850.961;    2.600; -739.000; -678.000
851.211;  115.900; -513.000; -504.000
851.460;  193.200; -635.000; -650.000
851.709;  872.100;  -25.000;   18.000
851.958;17259.500; -912.000; -750.000
852.208;15813.800; -859.000; -879.000
852.457;  582.000; -181.000;  -13.000
852.706;   59.400; -791.000; -823.000
852.955;   -3.900; -507.000; -528.000
853.204;  -79.300; -521.000; -461.000
853.453; -106.400; -418.000; -458.000
853.702; -216.800; -660.000; -750.000
853.951; -160.300; -532.000; -520.000
854.200; -175.500; -613.000; -562.000
854.449; -218.000; -695.000; -661.000
854.698; -102.000; -340.000; -279.000
854.946;  -68.200; -181.000; -284.000
855.195; -232.600; -843.000; -868.000
855.444; -127.300; -395.000; -420.000
855.693; -181.700; -345.000; -432.000
855.941; -149.300; -387.000; -516.000
856.190;  -55.900; -256.000; -382.000
856.439; -197.300; -652.000; -703.000
856.687;  -74.300;  -99.000;  -72.000
856.936; -159.900; -621.000; -323.000
857.184; -304.100;-1067.000;-1020.000
857.433; -169.600; -423.000; -512.000
857.681; -292.600; -989.000; -953.000
857.930; -105.100; -282.000; -433.000
858.178; -270.100; -856.000; -929.000
858.427; -246.100; -802.000; -781.000
858.675; -182.500; -377.000; -544.000
858.923; -166.400; -527.000; -819.000
859.172; -316.900;-1094.000;-1070.000
859.420; -107.000; -339.000; -239.000
859.668; -217.900; -624.000; -628.000
859.916;   30.800;  109.000;  115.000
860.164; -191.700; -699.000; -603.000
860.413;  421.500; -878.000; -696.000
860.661;  153.600; -709.000; -577.000
860.909; -119.700; -339.000; -325.000
861.157; -136.700; -277.000; -444.000
861.405; -217.900; -534.000; -670.000
861.653;  103.600;  310.000;  310.000
861.901;  257.800; -543.000; -613.000
862.149;  -93.400; -801.000; -824.000
862.396;  -62.400; -297.000; -187.000
862.644; -120.400; -368.000; -347.000
862.892;    7.500;   98.000;  138.000
863.140; -152.700; -549.000; -530.000
863.388; -275.200; -815.000; -759.000
863.635; -197.100; -642.000; -601.000
863.883;   27.100;  231.000;  190.000
864.131; -151.400; -288.000; -357.000
864.378; -203.300; -675.000; -540.000
864.626; -153.200; -347.000; -415.000
864.873; -163.100; -556.000; -505.000
865.121; -237.500; -714.000; -799.000
865.368;  -20.700; -173.000;   75.000
865.616;  -25.700;  -33.000;  -40.000
865.863;  -97.400; -462.000; -506.000
866.111; -162.200; -795.000; -824.000
866.358;   91.600; -426.000; -420.000
866.605; 4272.200;  -64.000; -804.000
866.853; 3137.300; -621.000; -537.000
867.100;  -91.100; -728.000; -775.000
867.347; -149.900; -672.000; -611.000
867.594; -151.300; -740.000; -714.000
867.841;  136.800;   97.000;   17.000
868.089; -229.400; -746.000; -698.000
868.336; -141.300; -477.000; -420.000
868.583; -228.500; -637.000; -741.000
868.830;  -29.200; -131.000; -170.000
869.077; -283.800; -859.000; -787.000
869.324; -196.200; -502.000; -458.000
869.571; -184.400; -398.000; -430.000
869.818; -164.000; -485.000; -439.000
870.065; -150.100; -439.000; -513.000
870.311; -165.500; -456.000; -542.000
870.558; -139.800; -332.000; -311.000
870.805;  -98.900; -320.000; -384.000
871.052; -158.000; -494.000; -369.000
871.298;  -80.500; -204.000; -131.000
871.545;  -86.300; -151.000; -185.000
871.792; -114.500; -173.000; -222.000
872.038;  -61.800;   43.000; -126.000
872.285; -169.100; -496.000; -387.000
872.532; -144.900; -357.000; -387.000
872.778;  117.900;  556.000;  403.000
873.025; -137.400; -384.000; -359.000
873.271;  124.300;  501.000;  578.000
873.517;   -2.100; -133.000; -209.000
873.764;  -60.400; -193.000;  -80.000
874.010;  -62.100; -143.000; -230.000
874.257;  -20.000;  123.000;   90.000
874.503; -189.500; -579.000; -479.000
874.749;  -65.900;   31.000;  275.000
874.995;  -50.000;  -80.000;  -20.000
875.242; -157.600; -540.000; -478.000
875.488; -152.100; -414.000; -439.000
875.734;  -40.700; -106.000; -234.000
875.980;  264.200; -872.000;-1032.000
876.226;  445.200; -157.000; -255.000
876.472;   49.500;  343.000;  237.000
876.718;    8.700;  184.000;  158.000
876.964;   -2.600;   56.000;   55.000
877.210; -233.700; -547.000; -677.000
877.456; -207.700; -630.000; -557.000
877.702; -289.400; -821.000; -832.000
877.948; -150.000; -377.000; -497.000
878.193;   30.500;  361.000;  255.000
878.439; -142.900; -487.000; -472.000
878.685; -141.600; -272.000; -343.000
878.931; -211.400; -618.000; -676.000
879.176;  -92.200; -201.000; -201.000
879.422; -300.600; -933.000; -820.000
879.668;  104.700;   10.000;   79.000
879.913;  211.500;   53.000;  137.000
880.159;  -63.600; -112.000;  -17.000
880.404;  -66.600; -152.000; -162.000
880.650;  -23.500;   91.000;  141.000
880.895; -260.000; -670.000; -710.000
881.141; -178.900; -454.000; -428.000
881.386; -233.800; -503.000; -658.000
881.631; -139.300; -311.000; -166.000
881.877;  -14.400;  112.000;  -13.000
882.122; -217.100; -684.000; -600.000
882.367;  -99.800; -136.000; -186.000
882.612;  -95.600;  -80.000; -176.000
882.858; -298.600; -877.000; -823.000
883.103; -148.000; -297.000; -267.000
883.348; -254.700; -759.000; -852.000
883.593; -226.000; -677.000; -602.000
883.838;  -70.500; -311.000;  -24.000
884.083;  114.000;  353.000;  288.000
884.328; -102.700; -564.000; -545.000
884.573;  -46.100; -196.000; -143.000
884.818;  323.800; -694.000; -531.000
885.063;  200.100; -348.000; -315.000
885.308; -177.300; -475.000; -398.000
885.553;   78.000;  245.000;  325.000
885.797; -206.900; -545.000; -615.000
886.042;  -35.400;    8.000;   58.000
886.287;  -87.800; -253.000; -211.000
886.532;  -41.700;   26.000;  204.000
886.776; -182.100; -407.000; -525.000
887.021; -207.300; -621.000; -574.000
887.265; -210.100; -685.000; -689.000
887.510; -188.700; -557.000; -496.000
887.755; -135.700; -194.000; -164.000
887.999; -183.000; -552.000; -575.000
888.244;  -46.900;  -58.000;  161.000
888.488;   95.200;  371.000;  393.000
888.732; -193.700; -368.000; -520.000
888.977; -232.200; -622.000; -567.000
889.221; -253.500; -683.000; -659.000
889.465; -193.500; -422.000; -566.000
889.710; -102.900;  -56.000; -299.000
889.954;   94.800;  579.000;  467.000
890.198; -204.800; -584.000; -707.000
890.442; -237.200; -716.000; -712.000
890.687; -276.400; -800.000; -753.000
890.931; -119.600; -273.000; -210.000
891.175; -213.800; -502.000; -500.000
891.419;  -84.900; -105.000; -110.000
891.663; -121.200; -239.000; -112.000
891.907; -255.800; -801.000; -545.000
892.151; -274.100; -920.000; -815.000
892.395; -179.700; -274.000; -387.000
892.638;   31.600;  408.000;  291.000
892.882; -307.400; -780.000; -867.000
893.126;   91.200;  758.000;  558.000
893.370; -119.700; -167.000; -168.000
893.614; -246.600; -714.000; -715.000
893.857; -112.300; -183.000; -197.000
894.101; -217.900; -527.000; -631.000
894.345;  -21.300;  300.000;  150.000
894.588;  125.100;  569.000;  380.000
894.832; -107.600; -178.000;  -84.000
895.075;  -91.700;   15.000;  -92.000
895.319; -192.100; -552.000; -420.000
895.563; -167.100; -413.000; -353.000
895.806; -259.900; -628.000; -741.000
896.049;  -49.000; -576.000; -368.000
896.293;  211.400;  527.000;  405.000
896.536; -147.600; -465.000; -468.000
896.779;  -34.500; -149.000;   -1.000
897.023; -230.600; -751.000; -714.000
897.266;   40.000;  325.000;  269.000
897.509; -278.400; -900.000; -901.000
897.752;    1.500;  149.000;  171.000
897.996; -300.600; -972.000; -864.000
898.239;  -35.900;  168.000;  102.000
898.482; -206.300; -431.000; -453.000
898.725;  -10.300;  101.000;   53.000
898.968; -233.200; -609.000; -744.000
899.211; -142.300; -513.000; -361.000
899.454; -184.000; -633.000; -539.000
899.697;  -41.100;   90.000;  -43.000
899.940; -289.600; -761.000; -757.000
900.182; -125.100; -335.000; -405.000
900.425; -124.200; -150.000; -298.000
900.668;   39.200;  491.000;  350.000
900.911; -136.500; -292.000; -345.000
901.154;  -13.800;  141.000;   -3.000
901.396; -244.700; -407.000; -412.000
901.639; -231.300; -430.000; -496.000
901.882; -302.300; -790.000; -809.000
902.124;  -60.500;  -29.000; -143.000
902.367; -157.400; -315.000; -361.000
902.609; -213.600; -476.000; -453.000
902.852;  -82.300; -108.000; -260.000
903.094; -195.700; -458.000; -337.000
903.337;  -42.000;  -26.000;   53.000
903.579; -164.100; -228.000; -441.000
903.821; -267.200; -597.000; -744.000
904.064;  -32.300;   85.000;  127.000
904.306;  -67.900; -126.000; -166.000
904.548; -153.600; -152.000; -366.000
904.790; -122.700; -195.000; -340.000
905.033; -219.300; -625.000; -577.000
905.275; -198.100; -513.000; -524.000
905.517;  139.500;  468.000;  256.000
905.759; -144.900; -667.000; -761.000
906.001; -152.000; -322.000; -369.000
906.243;  -69.800; -162.000; -224.000
906.485;  225.600; -265.000; -207.000
906.727;   96.500; -499.000; -542.000
906.969;  -65.800;  -30.000; -135.000
907.211;  191.700; -316.000; -382.000
907.453;  393.000; -188.000; -237.000
907.695;  -28.500; -158.000; -385.000
907.936;  141.700;  818.000;  706.000
908.178;  -72.000;   92.000; -135.000
908.420; -107.700; -111.000; -162.000
908.662; -214.600; -633.000; -682.000
908.903; -120.000; -208.000; -123.000
909.145;  -89.300; -240.000; -305.000
909.386;   51.300;  315.000;  280.000
909.628;  159.400;  363.000;  397.000
909.870;   67.400;   29.000;  264.000
910.111; -190.400; -809.000; -949.000
910.353;   39.200; -123.000; -161.000
910.594;    1.300; -574.000; -606.000
910.835;  139.400; -265.000; -326.000
911.077;  242.200; -503.000; -604.000
911.318;  443.100; -505.000; -471.000
911.559;  656.900; -577.000; -880.000
911.801; 2221.100; -284.000; -280.000
912.042;19296.500;  -50.000; -159.000
912.283;39830.000;  404.000;  371.000
912.524; 4541.300; -396.000; -457.000
912.765;  712.500; -193.000;   79.000
913.006;  337.300; -307.000; -338.000
913.247;   43.800; -270.000; -290.000
913.488;   26.400;  -43.000;   30.000
913.729; -102.400; -373.000; -373.000
913.970;  -81.700;  -96.000; -292.000
914.211;  -72.800; -160.000; -198.000
914.452;  -66.800; -118.000;  -11.000
914.693;  121.900;  510.000;  592.000
914.934;   98.400;  510.000;  440.000
915.175;  -81.100;   53.000;  -95.000
915.415;  -60.100; -137.000;   27.000
915.656;  -30.600;  -28.000;  192.000
915.897; -123.500; -252.000;  -82.000
916.137;  -64.800;   74.000;   -9.000
916.378; -189.200; -573.000; -517.000
916.619; -126.200; -159.000;  -63.000
916.859;    6.900;  303.000;  330.000
917.100;  354.300; 1655.000; 1070.000
917.340;  180.600;  930.000;  728.000
917.581;  174.900;  965.000;  789.000
917.821;  -38.200; -171.000;  143.000
918.061;   40.000; -199.000;  -72.000
918.302;  -92.900; -152.000; -211.000
918.542;  -11.100;  -22.000;    3.000
918.782;  157.300;  369.000;  377.000
919.023;  292.700;  360.000;  427.000
919.263; 2630.900; 8131.000;  202.000
919.503; 1543.800; -137.000;  -54.000
919.743;  933.000;  390.000;  266.000
919.983;  298.800; -134.000;  -26.000
920.223;  152.400;  135.000;   14.000
920.463;  302.100;  631.000;  554.000
920.703;  215.400;   84.000;   39.000
920.943;  278.200; -110.000;   90.000
921.183;  345.200; -414.000; -405.000
921.423;  796.700;  307.000;  546.000
921.663; 1090.600; -174.000; -257.000
921.903; 2666.300;  237.000;  173.000
922.143;16321.700;  372.000;  389.000
922.383;54219.500;  158.000;  115.000
922.622;13704.000; -120.000;  -15.000
922.862; 1739.000;  796.000;  785.000
923.102;  626.700;  -51.000;   33.000
923.341;  286.200;   59.000;   74.000
923.581;  184.600;  450.000;  360.000
923.821;   66.900;  301.000;  398.000
924.060;   83.300;  351.000;  193.000
924.300;  -70.000;  -16.000; -128.000
924.539;   26.200;  584.000;  473.000
924.779;  118.100;  812.000;  597.000
925.018;  -15.300;  247.000;  353.000
925.257;   81.700;  595.000;  666.000
925.497;    4.600;  447.000;  412.000
925.736;  -92.500;  -35.000;  102.000
925.975;   74.400;  687.000;  669.000
926.214;  168.800;  907.000;  850.000
926.454;  120.300;  706.000;  757.000
926.693;  -25.100;  419.000;  543.000
926.932;  151.600; 1021.000;  825.000
927.171;  239.300; 1107.000; 1044.000
927.410;  199.400; 1144.000;  967.000
927.649;  149.100;  924.000;  742.000
927.888;   56.100;  590.000;  564.000
928.127;   38.100;  680.000;  678.000
928.366;  126.600;  842.000;  826.000
928.605;  142.400;  831.000;  737.000
928.844;  502.600; 1451.000; 1393.000
929.083; 1035.000;  770.000;  613.000
929.321;  587.700; 1335.000; 1359.000
929.560;  244.200; 1158.000; 1122.000
929.799;   14.300;  574.000;  475.000
930.038;  288.200; 1025.000; 1394.000
930.276;  -21.700;  334.000;  397.000
930.515;   87.100;  827.000;  681.000
930.753;   39.500;  614.000;  589.000
930.992;   56.200;  664.000;  717.000
931.230;   65.700;  847.000;  847.000
931.469;  460.200; 2162.000;  892.000
931.707;  224.600;  840.000;  751.000
931.946;  198.300; 1278.000; 1344.000
932.184;  219.400; 1437.000; 1175.000
932.423;  192.800; 1265.000;  963.000
932.661;  265.100; 1296.000; 1428.000
932.899;  111.700;  987.000;  821.000
933.137;  103.800;  754.000;  564.000
933.376;  345.900; 1664.000; 1335.000
933.614;  386.900; 1759.000; 1196.000
933.852;  188.700; 1357.000; 1171.000
934.090;  334.300; 1722.000; 1747.000
934.328;  300.800; 1252.000; 1457.000
934.566;  260.900; 1431.000; 1110.000
934.804;  335.400; 1263.000; 1309.000
935.042;  930.700; 1861.000; 1850.000
935.280; 3647.700; 2088.000; 2063.000
935.518; 2801.700; 2113.000; 2007.000
935.756;  678.000; 2481.000; 2316.000
935.994;  367.300; 1808.000; 1751.000
936.231;  711.900; 2890.000; 2950.000
936.469;  423.000; 2367.000; 2378.000
936.707;  414.500; 2220.000; 2167.000
936.945;  570.000; 2825.000; 2882.000
937.182;  496.000; 2679.000; 2741.000
937.420;  664.600; 3602.000; 3031.000
937.657;  900.200; 3365.000; 3478.000
937.895;  697.400; 3331.000; 3488.000
938.133;  714.500; 3540.000; 3528.000
938.370;  819.600; 3896.000; 4191.000
938.607;  935.000; 4488.000; 4205.000
938.845; 1201.000; 5587.000; 5549.000
939.082; 1065.100; 5387.000; 5177.000
939.320; 1197.800; 5799.000; 5728.000
939.557; 1443.100; 6549.000; 6491.000
939.794; 1572.400; 7285.000; 7097.000
940.031; 1924.100; 8421.000; 8368.000
940.269; 2222.700; 9552.000; 9107.000
940.506; 2322.600;10901.000;10507.000

