
Integration time [ms]: 100.000
Averaging Nr. [scans]: 40
Smoothing Nr. [pixels]: 0
Data measured with spectrometer [name]: 2101013U2
Wave   ;Sample   ;Dark     ;Reference
[nm]   ;[counts] ;[counts] ;[counts] 

394.013;   78.001; -450.257; -315.536
394.305;  203.749; -461.258; -419.536
394.596; 1595.591; -676.269; -527.514
394.887; 4095.063; -796.268; -654.518
395.178; 1479.327;  145.736;   11.476
395.470;  115.016; -210.263; -356.526
395.761;  169.207;  305.734;  394.479
396.052;  139.855; -545.284; -306.489
396.343;   98.645; -557.276; -454.503
396.634;   92.955; -200.279; -290.497
396.926;   56.534; -618.268; -565.517
397.217;  106.726;   11.725;  -17.504
397.508;   61.521; -366.273; -154.507
397.799;   46.255; -555.279; -571.497
398.090;   22.473; -973.280; -902.495
398.381;  112.084;   11.708;  -11.473
398.672;   11.310; -585.292; -742.473
398.963;   49.038; -348.279; -373.498
399.254;   98.622;   54.709; -209.475
399.545;   14.577;-1017.266; -883.520
399.836;   71.881; -407.277; -343.501
400.127;   68.053; -205.295; -209.468
400.418;   58.214; -423.274; -392.506
400.709;   65.706; -359.281; -333.493
401.000;   83.202; -268.291; -309.476
401.290;  140.247;  225.698;  115.545
401.581;  103.733; -166.286; -228.485
401.872;   52.867; -542.298; -486.462
402.163;  102.694; -313.296; -252.467
402.454;  133.248; -123.291; -163.475
402.744;   96.083; -844.297; -813.465
403.035;  276.823; -226.293;  -86.471
403.326;  376.114; -366.292; -384.474
403.617;  379.735;  204.701;  165.539
403.907;  415.713; -593.283; -679.490
404.198; 3539.563; -545.307; -599.446
404.489; 8920.519; -618.283; -588.491
404.779; 2527.401; -618.302; -660.456
405.070;  344.474;  -67.304; -174.451
405.360;  566.225; -259.293; -238.472
405.651;  505.791;  125.699;   98.542
405.942;  230.377;  209.714;  127.516
406.232;  160.221; -432.285; -413.487
406.523;  310.891;  641.706;  758.530
406.813;  118.955; -579.286; -644.484
407.104;  294.007;  261.708;  144.527
407.394;  183.737; -604.299; -591.462
407.685;  199.420;  336.715;  222.513
407.975;  140.842; -400.283; -382.490
408.265;  169.716; -134.289; -190.478
408.556;  108.994; -472.291; -459.475
408.846;  232.292;  474.706;  429.530
409.137;  157.752;   -1.288; -216.480
409.427;  133.520; -193.285; -271.487
409.717;  108.600; -776.273; -692.508
410.007;  196.987;    4.715; -170.486
410.298;  183.307; -360.295; -342.469
410.588;  161.442; -495.285; -510.486
410.878;   95.616; -792.287; -873.482
411.168;  159.471; -481.298; -478.463
411.459;  172.885; -295.283; -242.489
411.749;  136.867; -609.292; -507.474
412.039;  128.975; -755.289; -386.480
412.329;  264.197;   40.722;  132.501
412.619;  267.780;  -62.286; -148.485
412.909;  418.145;  639.711;  594.521
413.199;  394.673; -130.280; -251.495
413.490;  440.633;  521.710;  352.523
413.780;  242.203;-1013.279; -913.496
414.070;  426.671;  -46.276;  235.497
414.360;  443.342; -729.278; -666.498
414.650;  594.711; -726.288; -688.482
414.940;  780.252; -538.280; -441.496
415.230; 1273.807;   50.712;   74.519
415.520; 8833.790;  155.730;   66.486
415.809;35521.306; -305.281; -125.493
416.099;26333.409; -388.277; -229.501
416.389; 7591.436;  435.726;  236.494
416.679; 4344.296;   91.738;   85.473
416.969;  835.922; -527.287; -503.483
417.259;  697.105;  341.721;  171.503
417.549;  939.854;  522.718;  318.508
417.838; 2433.362; -205.268; -147.518
418.128; 8275.015;  650.710;  492.522
418.418; 6650.584; -491.272; -579.509
418.708; 4461.687;    9.726;  -48.506
418.997;17315.856; -474.275; -480.505
419.287;17354.120; -733.273; -790.507
419.577;16730.709; -160.283; -123.489
419.866;54474.756; -588.277; -498.501
420.156;53788.060; -242.270;  -55.513
420.446; 8915.311; -112.263;  -26.526
420.735;  968.327; -376.271; -446.512
421.025;  940.241; 1830.722;  315.502
421.314;  638.225; -203.271; -226.512
421.604;  854.128;   89.732;  233.484
421.893;  544.620; -705.271; -602.511
422.183;  334.287; -487.263; -461.526
422.472;  463.422;  -36.271; -107.511
422.762;  453.985; -416.266; -379.521
423.051;  330.122; -916.276; -916.503
423.341;  377.723; -491.273; -439.507
423.630;  463.693; -121.265;   15.477
423.919;  476.805;   58.725;   49.495
424.209;  509.919;  -31.263;   56.473
424.498;  667.434;   68.732;  161.483
424.787; 1447.767; -535.267; -601.518
425.077; 4173.741;   34.735;   29.478
425.366; 4480.026; -734.262; -744.528
425.655;12167.698;  639.727;  259.493
425.945;31074.742; -313.247; -268.554
426.234;16369.130;  117.741;  300.467
426.523; 7526.687;  -86.259; -350.534
426.812;10054.255;  107.734;  159.480
427.101;14458.723; -127.269; -323.515
427.390;16713.015;  -55.270;  -86.514
427.680; 2491.462; -624.257; -411.538
427.969;  612.176; -330.255; -301.540
428.258;  431.251; -385.257; -477.536
428.547;  576.089;  449.728;  397.490
428.836;  785.772; -421.253; -398.543
429.125; 1072.114; -199.259;  -72.534
429.414;  883.201; -330.251; -294.548
429.703; 4554.276; -231.251; -213.548
429.992;13958.880; -938.250; -828.549
430.281; 8741.177; -397.264; -331.524
430.570;  736.838;  -21.252;   32.454
430.859;  570.636;  279.741;  352.466
431.148;  593.736;  636.752;  631.446
431.437;  451.338;  391.748;  367.454
431.725;  268.528; -544.257; -481.536
432.014;  269.381; -845.253; -756.545
432.303;  502.258; -149.239; -105.569
432.592;  646.236; -460.263; -178.525
432.881; 1473.738; -601.248; -437.554
433.169; 9279.927; -343.255;  -61.540
433.458;18830.352;  445.765;  540.424
433.747; 7326.433; -397.261; -289.529
434.036; 1004.427; -275.242; -280.564
434.324; 2914.921; -395.249; -379.551
434.613; 5144.319;   40.757;  159.437
434.902; 1535.971;  333.760;  439.433
435.190;  424.882;   75.761;  295.431
435.479;  274.846;  -52.245;   83.441
435.767;  177.881; -411.244; -427.561
436.056;  311.622; -340.242; -294.563
436.345;  560.774; -372.240; -223.568
436.633;  521.290;   60.750;  383.450
436.922;  309.177;  208.760;  414.432
437.210;  383.414; -194.236;    1.426
437.499;  766.624; -583.235; -432.576
437.787;  851.013; -339.236;  -10.574
438.075;  312.789;   56.761;  162.430
438.364;  328.342;  -44.238;  250.429
438.652;  216.277; -286.226; -138.592
438.941;  157.706;    3.770;  269.415
439.229;   56.610; -665.252; -466.545
439.517;   87.035; -160.234;  -85.577
439.806;   62.522; -501.225; -290.595
440.094;  207.045;  377.766;  650.421
440.382;  106.125; -653.233; -302.580
440.670;  116.399; -361.235; -285.576
440.959;   66.769; -347.223; -170.599
441.247;  101.520; -151.229; -109.587
441.535;  102.908; -266.235;   31.423
441.823;   55.841; -497.234; -305.578
442.111;  198.476;  173.771;  327.412
442.400;  365.295; -628.245; -335.559
442.688;  688.794; -111.234; -620.579
442.976;  391.657; -786.213; -450.617
443.264;  104.106; -324.224; -364.597
443.552;   88.078; -258.226;   51.408
443.840;  163.131;  602.765;  876.423
444.128;  126.449;  265.767;  269.420
444.416;   42.679; -694.228; -312.588
444.704;   69.107; -465.219;  -92.605
444.992;   92.357;   -0.226;  240.407
445.280;   50.007; -517.230;  -94.585
445.568;   43.187; -694.212; -396.618
445.856;  185.937; -174.221;  357.398
446.143;  316.028;  -54.220;   -7.604
446.431;  306.184;  -25.228;  625.411
446.719;  215.782;  489.783;  675.391
447.007;  196.874;  481.769;  705.416
447.295;  216.891;  597.777;  871.402
447.583;  144.792; -464.229;  -34.587
447.870;  169.808; -434.221; -202.601
448.158;  292.880; -104.230;  129.415
448.446;  204.929; -800.219; -338.604
448.733;  183.107;   13.776;  269.403
449.021;  276.161;   60.788;  341.382
449.309;  236.155; -296.210;  208.379
449.596;  286.527;  128.783;   59.392
449.884;  262.925; -571.222; -325.600
450.172;  333.766; -756.227; -406.590
450.459;  696.511;  645.786;  780.387
450.747; 3605.975; -411.218; -147.608
451.034;11537.160;  493.772;  889.411
451.322; 9194.814; -413.214; -170.614
451.609;  743.309;  292.777;  508.403
451.897;  925.161; -550.203; -183.634
452.184; 2744.891; -622.223; -400.598
452.472; 2401.958;   97.792;  269.375
452.759;  401.380;  512.781;  864.395
453.047;  157.808; -407.212; -125.617
453.334;  107.690; -732.219; -216.606
453.621;  109.092; -438.214; -161.615
453.909;  160.226;   13.796;  384.368
454.196;  182.134; -299.199; -123.641
454.483;  352.928;  317.798;  540.364
454.771;  246.387; -215.208;  196.374
455.058;  117.466; -316.207;  102.374
455.345;  195.755;   71.807;  344.347
455.632;  181.070; -128.207;  235.373
455.919;  133.288;  -82.196;  182.354
456.207;   38.215; -774.198; -450.642
456.494;   61.543; -475.200;  -66.639
456.781;   88.547; -399.202; -198.635
457.068;  132.579; -253.206;  -29.628
457.355;   68.005; -698.206; -401.629
457.642;   85.787; -552.205; -290.630
457.929;  129.794; -778.194; -417.651
458.216;  164.183; -575.212; -354.617
458.503;  387.925; -173.193;  -19.652
458.790;  451.984; -864.208; -630.625
459.077;  471.354;  -77.202;  110.364
459.364; 1212.859; -350.195; -210.649
459.651; 2486.101;  -46.206;  220.372
459.938; 1128.097; -864.209; -665.623
460.225;  182.783;  132.799;  276.363
460.512;   35.559; -836.197; -688.645
460.799;  247.574;  -32.218;  320.392
461.086;  230.349; -370.200; -251.640
461.372;   88.465; -509.198; -279.642
461.659;  138.515; -165.196;  108.354
461.946;   90.873; -445.193;  -54.651
462.233;  267.846;  842.800;  888.361
462.519;  518.792; -814.201; -464.639
462.806; 1540.235; -768.197; -497.645
463.093; 1298.649; -445.191;  -66.656
463.380;   38.352; -920.186; -824.664
463.666;   84.437; -259.197;  -18.646
463.953;  148.978; -406.195; -243.648
464.239;  265.753; -173.195;  -77.648
464.526;  389.667;  413.806;  743.350
464.813;  316.989; -565.190; -304.658
465.099;  351.374;  606.807;  607.348
465.386;  308.454;  903.807;  921.348
465.672;  116.435; -694.197; -522.645
465.959;  157.962; -598.188; -520.662
466.245;   65.504; -468.193; -359.652
466.532;  134.775; -109.195;   63.352
466.818;   85.552; -357.186; -216.664
467.104;   67.853; -488.182; -415.672
467.391;   54.067; -628.189; -459.658
467.677;   94.807; -289.186;    9.335
467.964;   62.875; -682.189; -471.660
468.250;  131.135; -331.186; -160.665
468.536;  149.118;   90.811;  180.341
468.822;   56.025; -821.184; -574.668
469.109;  215.507;  351.827;  471.311
469.395;  255.917;  729.808;  787.346
469.681;  294.122;   46.811;  156.341
469.967; 1811.703; -699.188; -382.660
470.254; 3950.663; -494.188; -306.662
470.540; 2451.363; -601.196; -476.646
470.826;  378.818; -488.181; -397.675
471.112;  416.505;  288.816;  113.331
471.398;  160.136; -253.183;  -58.670
471.684;   97.154; -626.177; -447.680
471.970;   90.997; -918.180; -981.675
472.256;  107.640; -521.192; -441.654
472.542;  130.021; -499.171; -434.691
472.828;  150.398; -743.182; -607.672
473.114;  112.002; -380.166; -283.700
473.400;  108.175; -504.175; -293.684
473.686;  118.510; -452.166; -400.701
473.972;  115.219; -230.174; -131.687
474.258;   38.307; -925.173; -843.689
474.544;  330.793; -183.178;   -2.679
474.830;  462.627;  -65.175;   45.316
475.116;  727.091; -123.190; -196.658
475.401;  933.050; -558.180; -467.676
475.687;  278.624; -725.180; -718.676
475.973;   58.959; -673.181; -770.673
476.259;  316.780;  736.825;  764.315
476.544;  591.664; -539.176; -437.682
476.830; 1207.016; -398.172; -322.690
477.116; 1040.238; -430.177; -336.682
477.401;  199.050;  346.820;  358.324
477.687;   43.600; -289.175; -405.684
477.973;  100.488;   21.819;   28.326
478.258;   45.111; -448.163; -348.706
478.544;   83.942;   21.815;   61.334
478.829;    1.928; -818.171; -738.692
479.115;   12.115; -749.172; -651.690
479.401;   36.113; -444.174; -449.686
479.686;   87.498; -253.180;  -74.676
479.972;   32.225; -886.178; -776.680
480.257;   99.004; -258.166;  -65.700
480.542;  122.733; -614.170; -469.693
480.828;  325.273; 1288.824; 1392.317
481.113;   31.095; -464.176; -426.683
481.399;   55.842; -236.161; -202.711
481.684;   17.453; -620.166; -462.700
481.969;   97.984; -158.159;  -73.713
482.255;   59.122; -439.169; -285.695
482.540;   82.350; -569.178; -441.680
482.825;   98.946; -395.187; -404.663
483.110;  202.376;  -85.169; -105.696
483.396;  384.062; -840.157; -652.718
483.681;  699.144;  543.826;  730.313
483.966;  296.376; -696.160; -700.712
484.251;   47.718; -404.174; -310.687
484.536;   62.367; -356.165; -378.703
484.822;   83.122; -205.173; -218.687
485.107;   50.711; -599.152; -502.726
485.392;  169.824;  662.836;  541.296
485.677;  115.114;  354.832;  163.302
485.962;  175.433;  160.843;  270.283
486.247;  175.746;  -14.162;   -8.707
486.532;  117.755; -178.166; -325.701
486.817;  223.109;  381.839;  431.291
487.102;  171.014; -453.154; -514.722
487.387;  912.939; -637.156; -652.718
487.672; 1685.131; -154.164;  -38.705
487.957; 1074.119; -394.160; -286.711
488.241;  378.982; -290.150; -314.729
488.526; 1044.962; -280.152; -148.726
488.811; 1687.453; -881.177; -818.680
489.096; 1171.142; -666.154; -702.723
489.381;  648.808;    3.847;  162.275
489.666;  590.866; -428.161; -510.710
489.950;  238.396;  558.846;  627.277
490.235;   23.701; -480.151; -458.728
490.520;    3.565; -756.161; -723.710
490.804;    3.167; -827.156; -736.719
491.089;   61.752; -469.149; -299.732
491.374;   80.354; -132.164;  -75.704
491.658;   30.717; -817.147; -717.735
491.943;  133.518; -657.152; -609.727
492.227;  231.208; -178.155;  -38.721
492.512;   65.083; -294.157; -341.717
492.797;  -12.781; -713.149; -716.731
493.081;   -7.030; -588.147; -598.735
493.366;    7.842; -751.161; -635.711
493.650;  257.489;  831.859;  917.254
493.935;   87.216; -648.147; -447.734
494.219;   10.722; -778.142; -687.743
494.503;   11.863; -585.150; -487.730
494.788;   80.272;   46.842;   74.285
495.072;  153.709;  184.850;  434.271
495.356;  215.631; -463.148; -343.733
495.641;  464.129; -812.146; -736.736
495.925;  403.223; -976.156; -903.719
496.209;   64.351; -599.149; -451.732
496.494;    6.623; -763.142; -544.744
496.778;   60.539; -364.154; -360.722
497.062;    8.297; -819.156; -627.719
497.346;   11.746; -869.160; -640.711
497.631;  193.861;  580.852;  560.266
497.915;   93.292;  -64.145;  175.261
498.199;   65.087; -341.157; -277.718
498.483;   66.060; -562.152; -508.725
498.767;  250.935;  301.850;  300.271
499.051;  273.274; -126.149; -100.732
499.335;   85.146; -693.149; -739.731
499.619;    0.718; -381.129; -423.767
499.903;   55.682; -272.155;  -65.721
500.187;   69.998; -588.153; -316.724
500.471;   61.767; -796.152; -595.727
500.755;  126.990;   62.839;  -96.710
501.039;   45.732; -270.155; -357.721
501.323;   88.616;  -21.141;  264.254
501.607;   47.612; -447.163; -503.706
501.891;   38.639; -607.156; -512.718
502.174;  -22.843; -726.144; -585.741
502.458;   78.847;   89.849;  370.273
502.742;   73.196; -180.138; -191.751
503.026;  188.015; -412.147; -254.734
503.310;  305.283; -437.159; -375.713
503.593;  191.693; -464.147; -325.735
503.877;  134.998; -232.133; -156.760
504.161;  205.076;    2.847;  -50.724
504.444;  169.975; -841.158; -710.716
504.728;  704.528; -487.164; -522.704
505.012; 1017.256; -257.150;  -76.729
505.295;  755.967; -417.161; -212.711
505.579;  774.347; -256.156; -496.719
505.862; 1065.688; -555.145; -333.738
506.146; 1076.636; -681.159; -758.714
506.429;  524.286;  568.841;  461.286
506.713;  143.802; -732.151; -667.728
506.996;  464.863;   90.846;  295.278
507.280;  498.297; -633.165; -474.703
507.563;  340.855; -469.155; -261.721
507.847;  196.074; -423.153; -112.724
508.130;  165.293; -665.161; -456.711
508.413;  210.298; -758.167; -577.700
508.697;  394.348; -151.167;   12.300
508.980;  244.126; -422.153; -312.724
509.263;   63.875; -466.155; -450.720
509.547;   81.381; -124.150;   82.271
509.830;   75.720; -172.160;  140.289
510.113;  118.822;  128.844;  298.281
510.396;   79.683; -530.152; -300.725
510.680;   86.614; -818.145; -812.738
510.963;  284.069;  184.846;  180.277
511.246;  209.716; -493.150; -357.730
511.529;  274.121; -482.145;  -83.739
511.812;  541.269; -250.134;   10.241
512.095;  407.099; -740.151; -396.728
512.378;  103.848; -317.147; -245.736
512.661;   79.256; -703.137; -623.753
512.944;  112.075; -750.142; -637.744
513.227;  114.303; -170.137; -171.752
513.510;   87.457; -479.144; -671.741
513.793;   72.146; -485.140; -435.747
514.076;  177.170;  -43.127;  -39.771
514.359;  184.703; -294.149; -135.732
514.642;  149.179; -442.142; -567.744
514.925; 1005.969;  581.860;  561.253
515.208; 1407.089; -498.134; -443.758
515.491;  888.732; -276.133; -182.761
515.773;  524.236; -410.143; -337.742
516.056; 2804.864;  249.864;  409.246
516.339; 3738.119; -754.136; -652.755
516.622; 1810.913; -518.150; -488.730
516.904;  630.270;  882.857;  975.257
517.187;  268.801; -730.138; -523.752
517.470;  396.744; -568.143; -510.743
517.752;  633.698; -624.136; -470.756
518.035;  502.210; -708.139; -725.749
518.318;  570.495; -799.136; -744.755
518.600; 3377.561; -300.132; -325.762
518.883; 4599.303;  310.858;   88.256
519.165; 2092.967; -585.138; -426.751
519.448;  427.786;  -61.132;  -19.762
519.730;  228.405; -573.126; -415.773
520.013;  270.777;  588.867;  664.240
520.295;  347.196;  -94.134;  -15.759
520.578;  732.903; -335.131; -305.764
520.860;  945.861; -254.132;   56.238
521.143;  622.051; -763.135; -584.756
521.425;  514.121; -251.125; -279.775
521.707;  847.695; -622.127; -380.771
521.990; 2376.121; -199.127;  167.229
522.272; 2737.299; -116.140;   -4.748
522.554; 1015.062; -237.143; -157.742
522.836;  269.068;  -24.134;   99.241
523.119;  188.014; -496.148; -189.734
523.401;  161.211; -448.130; -314.766
523.683;  168.307; -865.137; -693.753
523.965;  366.823;  408.862;  260.248
524.247;  415.098;   54.878;  170.220
524.529;  306.396; -451.134; -367.759
524.812;  439.414;   -3.130;  191.234
525.094; 1192.498; -773.138; -631.751
525.376; 1884.658; -143.124;   78.223
525.658; 1128.266; -441.136; -339.754
525.940;  104.648; -805.131; -671.764
526.222;   57.196; -188.136;  -88.755
526.504;   90.996; -190.131;   32.237
526.786;   65.824; -960.133; -647.760
527.068;  148.090; -124.123;  -67.778
527.349;   23.562; -865.137; -774.754
527.631;  137.411; -137.132;   22.238
527.913;  198.669; -664.127; -450.771
528.195;  259.212; -761.125; -639.774
528.477;  324.564;  -93.134;  -30.758
528.759;  234.739; -648.130; -522.766
529.040;  128.863; -569.123; -293.778
529.322;   88.541; -235.125;  -10.774
529.604;  102.716;  -47.130;   93.233
529.886;   57.754; -546.126; -302.773
530.167;   77.856;  232.870;  192.235
530.449;   56.447;    1.853;   63.265
530.731;   74.597; -572.122; -459.779
531.012;  150.449; -513.120; -216.784
531.294;  138.449; -118.116;  -43.792
531.575;  208.496;  290.875;  538.225
531.857;  125.233; -548.135; -266.757
532.138;  121.489; -113.141;   40.254
532.420;  132.578;  294.865;  403.244
532.701;   95.477; -722.133; -751.760
532.983;  201.831;  232.867;  182.239
533.264;   89.077; -243.126;  175.228
533.546;    2.220; -491.136; -508.755
533.827;   61.973;  173.867;   -1.759
534.109;   52.633; -352.135;  -80.757
534.390;  102.891; -725.132; -582.762
534.671;  308.878; -270.135;  -82.756
534.953;  194.867; -751.123; -611.779
535.234;   78.830; -426.117; -255.789
535.515;  -22.115; -891.119; -735.785
535.796;   39.914; -431.128; -193.770
536.078;  -63.918;-1050.124; -904.777
536.359;   46.518;  -22.123;    3.221
536.640;   19.514; -480.125; -197.774
536.921;  183.373;  225.871;  143.232
537.202;  468.668;  -87.138;  -16.751
537.483;  606.852;  251.869;  377.236
537.764;  254.006;   17.870;   98.235
538.045;   -0.787; -543.134; -371.758
538.326;   -2.324; -596.129; -447.768
538.607;   72.647; -686.127; -476.771
538.888;  242.612;   98.879;    5.218
539.169;  268.955; -704.122; -535.781
539.450;  375.347;  236.871;   16.233
539.731;  249.042; -361.121; -182.783
540.012;  149.899;  199.880;  412.216
540.293;  103.225;   82.876;  158.224
540.574;    2.700; -895.113; -717.796
540.855;  479.590;  435.879;  377.218
541.136;  626.827;   47.878;  139.220
541.416;  358.990; -161.130; -220.766
541.697;  278.196; -274.131; -170.763
541.978; 1465.105; -270.135; -315.757
542.259; 1865.796; -211.127; -236.771
542.539;  869.941; -191.116; -186.790
542.820;  215.271;  461.875;  480.225
543.101;  153.241;  -52.145;  -77.738
543.381;   58.996; -638.127; -591.771
543.662;  359.843;  159.873; -254.771
543.942;  910.966; -751.127; -830.770
544.223; 1510.654;  193.878;  161.219
544.504;  972.357; -275.124; -182.777
544.784;  806.004; -592.126; -408.773
545.065; 2330.896;  104.884; -254.791
545.345; 2739.585;  227.881;   14.215
545.626; 1730.350;  -14.113; -108.796
545.906; 1255.530;   77.869;   98.235
546.186;  515.710;   92.874;  -95.773
546.467;  305.410;   99.877;  -95.778
546.747;  486.516;  264.884;  327.210
547.027;  534.580;   91.876;  111.223
547.308;  520.140; -376.127; -530.770
547.588;  567.951;  299.871;  371.232
547.868;  269.257;  458.870;  588.235
548.149;  259.055;  609.885;  593.207
548.429;  228.794; -347.127; -299.771
548.709;  316.898; -645.120; -461.784
548.989;  671.772;   84.882;   88.213
549.269; 2863.184;   10.868;  139.239
549.550; 6738.341;  215.877;  117.222
549.830; 5956.023; -758.111; -556.799
550.110; 1146.582; -468.110; -320.801
550.390; 1175.348; -128.122;  -56.779
550.670; 1683.494; -868.114; -783.795
550.950; 1145.990; -509.121; -471.782
551.230;  250.910;  549.879;  460.218
551.510;   57.389; -381.121; -326.782
551.790;   84.667; -173.109; -127.803
552.070;  341.785;  940.877; 1181.223
552.350;  623.465; -492.119; -377.786
552.630;  830.882;   -2.121;   77.219
552.909;  478.772;  181.884;   73.209
553.189;  353.742;  -49.132;   33.237
553.469;  334.839; -703.119; -514.786
553.749;  315.723; -469.127; -357.772
554.029;  264.585;   33.883;  -24.790
554.308;  237.911; -154.115;  -37.794
554.588;  137.238; -196.128; -204.770
554.868;  149.841; -366.121;  -47.782
555.147;  246.657; -114.115;  -46.793
555.427;  845.674; -260.116; -250.792
555.707; 5354.129; -284.115; -200.793
555.986; 6621.202; -719.111; -538.800
556.266; 3355.639;   23.884;   72.210
556.546;  232.264; -888.121; -675.782
556.825;  385.966; -657.114; -556.794
557.105; 2471.010; -125.128;   17.230
557.384; 2915.545;  122.884;  187.209
557.664; 1110.799; -717.116; -508.792
557.943;  215.940; -557.121; -411.782
558.222;  288.551; -345.118; -344.788
558.502;  382.959; -116.115;  -76.793
558.781;  643.978;  194.885;  499.208
559.061;  580.626; -232.118; -227.788
559.340;  419.632;  302.883;  353.211
559.619; 1000.914;   93.884;  148.210
559.899; 1463.184; -239.117; -266.789
560.178; 1297.783; -778.115; -593.793
560.457; 4238.336; -623.117; -562.790
560.736; 6044.378; -472.111; -482.800
561.015; 3890.333; -500.128; -502.769
561.295;  514.043;  180.893;  215.193
561.574;  393.880;  119.885;  116.207
561.853;  640.698;  274.891;  303.197
562.132;  690.037;  -45.114;  182.206
562.411;  592.608;  396.879;  553.219
562.690;  240.728; -592.115; -458.792
562.969;  177.834;  472.888;  630.203
563.248;  555.405; 2966.878; 2487.219
563.527;  413.727; -290.111; -408.800
563.806;  570.994; -650.127; -521.771
564.085;  616.562; -297.105; -206.810
564.364;  382.188; -594.117; -405.790
564.643;  685.133; -276.121; -223.781
564.922; 2549.215;  221.890;  397.198
565.201; 2630.594; -640.109; -700.803
565.479; 1097.476; -297.115; -219.792
565.758;  502.011; -810.128; -712.770
566.037;  682.796; -155.109; -100.803
566.316;  357.071; -286.116;  -28.791
566.595;   84.155;  -17.115;  -12.793
566.873;  134.380; -166.111;  -79.801
567.152;    1.758; -490.113; -590.797
567.431;   63.090; -113.116;    6.210
567.709;   82.468; -344.107; -212.807
567.988;  435.616; -810.114; -769.794
568.266;  822.855; -160.115;  -68.793
568.545;  588.922; -644.100; -514.819
568.824;  792.475;  160.885;  356.208
569.102;  812.290; -351.114; -235.794
569.381;  364.574; -492.116; -407.792
569.659;   10.828; -553.113; -553.796
569.938;  127.328; -743.122; -465.780
570.216;  189.049; -225.109; -225.804
570.494;   35.220; -632.114; -572.795
570.773;   67.863;  202.879;  114.218
571.051;   42.739; -373.123; -357.778
571.330;  120.550; -221.113; -174.796
571.608;   94.695; -181.098; -173.823
571.886;  -22.805; -671.111; -581.799
572.164;  -25.284; -739.121; -621.782
572.443;    1.917; -562.105; -512.811
572.721;   -8.438; -399.117; -289.790
572.999;    3.828; -280.117; -168.788
573.277;  126.083;  379.894;  620.191
573.555;  385.211;   94.894;   37.190
573.834; 1854.753;  -86.117; -114.788
574.112; 2087.171;  880.893;  811.193
574.390;  646.279; -143.111;  -96.801
574.668;   43.660;  -91.112;  -61.797
574.946;   19.161; -165.106; -187.810
575.224;   46.444;   71.891;  -16.803
575.502;   14.943; -200.116; -204.791
575.780;  -30.089; -767.112; -829.798
576.058;  228.103; 1589.889; 1004.200
576.336;   11.560; -210.110; -129.801
576.614;  -27.339; -511.112; -340.798
576.891;  133.035; -711.115; -823.794
577.169;  706.010; -158.108; -285.805
577.447;  774.570;  169.893;  202.193
577.725;  351.992;  629.888;  854.201
578.003;   57.264;  -71.112; -371.798
578.280;  138.403; -208.104; -242.812
578.558;  101.909; -450.115; -422.793
578.836;  157.019; -210.114; -145.795
579.114;   86.109; -630.112; -670.797
579.391;   93.130;   -6.117;  -18.789
579.669;  -28.464; -595.114; -704.794
579.947;  248.041; -326.107; -127.806
580.224;  511.741; -692.107; -524.806
580.502;  440.396;  127.893;   76.193
580.779;   48.338;  -42.117;   75.210
581.057;  -41.225; -584.109; -470.804
581.334;  -64.353; -726.102; -695.815
581.612;   64.262;   54.895;  511.190
581.889;   -4.911;  -83.101; -129.818
582.167;  -14.618; -298.099; -190.821
582.444;  -72.093; -845.102; -814.817
582.721;  129.533;  657.899;  715.183
582.999;   82.954; -326.100; -167.821
583.276;  758.519; -812.123; -713.779
583.553; 1022.401; -364.102; -294.816
583.831;  370.724; -607.104; -631.812
584.108;   84.682;  349.892;  174.195
584.385;   53.872; -122.102;  -98.815
584.662;  -11.744; -651.111; -828.801
584.940;   72.704;  204.889;  204.199
585.217;   -6.122;  -73.113; -303.796
585.494;   66.841;   71.890;  118.198
585.771;  314.501; -250.109; -354.804
586.048;  734.528; -196.113;  -76.796
586.325;  510.909; -721.110; -773.801
586.602;  136.679;  230.896;  213.188
586.879;   47.925; -499.100; -580.820
587.156;   97.538; -156.105; -331.810
587.433;    6.805; -701.102; -667.817
587.710;  134.112;  152.888;  234.202
587.987;  448.895; -264.105; -236.811
588.264; 1121.914;  315.888;  387.202
588.541; 1839.082;  -61.104;   26.187
588.818; 3748.104;   72.892;  171.196
589.095; 3180.001; -163.104; -174.812
589.371;  545.148; -459.109; -414.804
589.648;   77.221; -581.107; -437.807
589.925;   92.321; -517.114; -621.795
590.202;   86.886; -741.112; -607.798
590.478;  155.522; -166.105;  -73.811
590.755;  371.886; -241.108; -132.806
591.032; 3392.986; -741.110; -699.802
591.308; 4844.021; -732.094; -790.831
591.585; 2436.961; -573.110; -560.802
591.862;  270.132;-1056.102; -950.817
592.138;  140.258; -475.108; -474.805
592.415;  230.705; -486.104; -495.813
592.691; 2007.777;  460.896;  518.188
592.968; 2676.348; -208.098; -123.824
593.244; 1323.291; -695.116; -595.790
593.521;  119.457; -105.102;  -42.817
593.797;   44.624; -810.122; -720.780
594.074;  504.714; -611.096; -588.826
594.350;  894.028;  828.905;  729.172
594.626;  433.131; -303.111; -283.801
594.903;  215.433; -643.101; -645.817
595.179;  255.085;  243.896;  418.187
595.455;   26.547; -136.107; -150.807
595.731;   29.737;  -19.103;  -38.814
596.008;    0.048; -464.111; -434.800
596.284;   66.853; -187.100; -242.820
596.560;  119.155; -501.093; -493.833
596.836;  296.116; -173.105;  -70.810
597.112;  507.534; -582.108; -437.805
597.388;  438.736;  -49.097;  -48.826
597.665;  152.056;  437.887;  530.203
597.941;  -25.208; -572.089; -658.839
598.217;   57.790; -323.110; -293.802
598.493;  381.503;   61.891; -204.804
598.769;  761.470; -175.100;  -50.819
599.045;  464.213; -490.108; -562.806
599.321;  114.876; -193.100; -261.820
599.597;  225.527; -355.109; -476.804
599.872;  650.207;  409.896;  429.187
600.148;  530.963;  -61.097; -172.826
600.424;  387.969;   91.893;  202.193
600.700;  368.172; -170.107; -280.807
600.976;  209.206; -442.097; -464.825
601.252;  385.472; -226.109; -272.803
601.527;  372.183; -833.104; -840.813
601.803;  252.698; -453.105; -404.812
602.079;  288.845; -124.100; -118.819
602.354;  806.492; -620.092; -531.835
602.630; 1185.403; -140.113; -482.796
602.906; 2956.264; -910.101; -863.818
603.181; 9131.765; -627.119; -534.786
603.457; 7647.785;   98.903; -278.826
603.733; 1172.544; -605.120; -626.783
604.008; 1261.762; -245.106; -164.810
604.284; 4290.685; -636.101; -580.817
604.559; 3670.242;   -3.112;  -42.799
604.835;  690.341; -163.105; -225.810
605.110;  614.733; -732.099; -892.821
605.385;  973.858;  224.907;  267.167
605.661;  916.181; -625.095; -729.829
605.936; 1685.663; -664.108; -737.806
606.211; 1366.695;  -17.103; -170.815
606.487;  319.764; -329.114; -376.794
606.762;   95.665; -791.119; -745.786
607.037;   24.641; -501.105; -433.810
607.313;   -2.652; -589.096; -574.828
607.588;   20.161; -375.106; -137.810
607.863;   84.489;  -28.101; -143.818
608.138;  243.414;  513.890;  516.198
608.413;   96.863; -576.099; -592.822
608.688;   79.158; -203.108; -267.805
608.964;  301.879; -509.106; -218.809
609.239;  336.463; -107.105; -212.810
609.514;  331.173;  281.895;  240.188
609.789;  989.053; -187.104; -716.812
610.064; 1282.221; -435.096; -609.827
610.339; 1218.448; -855.109; -799.804
610.614; 1633.227; -131.100; -315.820
610.889;  894.523;  215.895;  107.188
611.163;   98.899; -407.104; -591.812
611.438;  145.141;   81.886; -167.794
611.713;   64.885; -467.101; -499.817
611.988;  117.362; -144.101; -328.818
612.263;   44.497; -771.102; -717.815
612.538;  293.452;  385.887;  251.204
612.812;  323.903; -832.100; -911.820
613.087;  263.095; -358.098; -338.823
613.362;   -8.678; -497.107; -557.807
613.637;   60.815;  261.897;  138.186
613.911;   31.268; -256.092; -345.835
614.186;  182.845; -249.107; -292.807
614.460;  973.463; -842.081; -758.854
614.735; 1097.597;  -55.087;  -17.843
615.010;  249.634;   43.912;  -82.841
615.284;  321.683;  360.892;  246.195
615.559;  583.491; -792.092; -955.835
615.833;  431.261;  -76.099;  -87.822
616.108;   27.732; -225.090; -390.837
616.382;  187.024;  274.913;  402.156
616.656;  231.957; -241.090; -232.837
616.931;  739.361; -785.099; -700.822
617.205; 1509.284; -973.104; -979.813
617.480; 1363.193;  -91.125;    6.225
617.754;  265.715; -396.125; -128.774
618.028;   46.002; -369.129; -382.768
618.302;   97.556;   73.892;  -25.805
618.577;  -13.133; -371.103; -518.815
618.851;  -32.656; -399.109; -600.803
619.125;  -42.529; -335.134; -378.759
619.399;  -16.266; -244.104; -374.813
619.673;  -20.874; -330.115; -515.792
619.947;  -20.531; -333.114; -448.795
620.222;   15.557; -198.110; -204.801
620.496;   17.291;  -47.121;  -96.782
620.770;   39.030; -187.122;  -93.781
621.044;  288.588;  323.895;  346.190
621.318; 1067.844; -653.120; -614.783
621.592;  945.742; -430.121; -409.783
621.866;  536.868; -476.112; -572.799
622.140;   46.292; -207.116; -356.791
622.413;   82.448;  138.889;  112.200
622.687;    1.010; -746.101; -492.817
622.961;   42.431; -130.108; -143.805
623.235;  -38.551; -633.111; -661.800
623.509;  -74.828; -816.105; -848.811
623.783;    4.792;  -12.107;   48.193
624.056;    3.971; -254.120; -280.783
624.330;   64.460;   63.888;   -3.797
624.604;   77.963; -271.116; -355.790
624.877;  119.788;  180.890;   26.198
625.151;   87.637; -249.114; -238.794
625.425;  -12.189; -150.103; -283.814
625.698;  -29.317; -367.119; -374.785
625.972;  -77.609; -799.110; -765.802
626.245;   88.266;  685.884;  484.210
626.519;  -36.474; -426.120; -340.784
626.792;  -16.028; -192.107; -380.807
627.066;  -70.654; -485.122; -662.779
627.339;  -62.615; -736.110; -663.802
627.613;   63.349;  351.880;  148.216
627.886;   69.043;  187.891; -612.803
628.160;   13.694;  312.880; -161.783
628.433;  -76.478; -695.125; -703.775
628.706;  -58.574; -517.120; -615.784
628.979;   52.280;  296.876;  117.223
629.253;  -52.636; -785.119; -833.786
629.526;  498.802; -334.126; -253.772
629.799;  521.564; -641.123; -479.778
630.072;  275.054; -497.128; -516.769
630.346;  -24.734;-1115.116;-1080.790
630.619;  645.148; -467.107; -545.808
630.892;  850.600;  709.889;  593.200
631.165;  425.309;  790.896;  679.187
631.438;  -33.161;-1092.112;-1055.798
631.711;   69.393;  453.877;  257.221
631.984;  -28.415; -523.117; -624.789
632.257;  -42.745; -636.117; -681.789
632.530;  -24.292; -412.119; -433.785
632.803;   40.335; -109.115;    7.207
633.076;  -53.740; -360.123; -422.777
633.349;   23.235;  173.872;  121.231
633.622;  -22.619; -187.119; -240.785
633.895; -101.480; -903.120; -823.783
634.167;  -59.795; -496.126; -525.773
634.440;   -3.051;  -19.116; -137.792
634.713;    4.862;  -22.119; -120.786
634.986;   80.097;  593.871;  453.233
635.258;  -48.567; -507.115; -597.793
635.531;   89.800;  742.882; -343.788
635.804;  -28.492; -303.117; -318.789
636.077;  -72.081; -830.116; -852.791
636.349;   31.555; -586.115; -474.793
636.622;  426.501; 1695.874; 1392.228
636.894;  350.701; -474.120; -909.784
637.167;  273.244; -836.127; -789.771
637.439;   63.814; -278.128; -213.770
637.712;  -29.172; -312.126; -293.772
637.984;  -51.480; -635.116; -707.791
638.257;  510.111;  515.877;  488.222
638.529;  932.423; -881.125; -924.776
638.802;  395.854; -508.128; -449.769
639.074;  -73.346; -927.122; -952.781
639.346;  -82.915; -942.135; -930.757
639.619;   20.901;  -79.142; -319.744
639.891;   21.121;  -83.122; -168.779
640.163;  -50.927; -689.122; -756.780
640.435;   42.426;  273.878;  103.220
640.708;   46.403;  -72.122; -132.780
640.980;   15.930; -366.122; -362.781
641.252;  252.758;  -25.121;  -71.781
641.524; 2438.385;  580.879;  573.219
641.796; 2644.762;-1094.121; -907.782
642.068;  481.165; -191.121; -300.782
642.340;  -19.433; -486.121; -566.783
642.613;   60.619;  294.880;  323.217
642.885;  -77.878; -787.120; -878.783
643.157;   -1.101; -810.120; -658.784
643.428;   85.326;  170.880;  218.216
643.700;  -52.571; -498.120; -425.784
643.972;  -25.294;  -16.119; -133.785
644.244;  -84.517; -474.119; -559.785
644.516;  -25.614; -250.119; -114.786
644.788;   79.563;  662.881;  548.214
645.060;  -20.910;  -12.119; -124.786
645.332;  -75.932; -525.118; -535.787
645.603;   38.520;  479.882;  342.213
645.875;  -57.528; -334.118; -369.787
646.147;  154.725; 1487.882; 1242.212
646.418;  -25.798; -931.117; -918.788
646.690;  243.604; -714.117; -715.789
646.962;   83.757; -413.117; -451.789
647.233;    8.559;   15.883;   11.211
647.505;  -86.063; -595.117; -475.790
647.776;   24.914;  328.884;  229.210
648.048;   18.016; -248.116; -418.790
648.320;  -34.531; -752.116; -679.791
648.591; -134.779;-1055.116; -958.791
648.862;  -81.652; -505.116; -577.792
649.134;   30.001;  115.885;  198.208
649.405;   -6.597; -661.115; -618.792
649.677;  -30.570; -475.115; -598.793
649.948;   22.508; -181.115; -296.793
650.219;   -5.915;  -37.115; -147.793
650.491;  -67.838; -431.114; -520.794
650.762; -112.360; -705.114; -731.794
651.033;  -66.733; -437.114; -424.795
651.304;  -44.631; -743.114; -728.795
651.576;  -34.928; -680.114; -645.795
651.847;  -26.426; -250.113; -140.796
652.118;  -26.024;  -32.113; -189.796
652.389;  -84.871; -639.113; -722.796
652.660;  -24.244; -147.113;  -89.797
652.931; -111.567; -897.112; -871.797
653.202;  -60.964; -382.112; -541.798
653.473;  -38.662; -633.112; -533.798
653.744;  267.640; -595.112; -590.798
654.015;  247.268; -356.112; -303.799
654.286;  -30.230; -642.111; -663.799
654.557;  -27.178; -586.111; -521.799
654.828; -121.075;-1114.111;-1088.800
655.099;  -75.048; -404.111; -291.800
655.370;  -81.771; -427.111; -543.801
655.641;  -96.493; -656.110; -714.801
655.911;  -81.841; -618.110; -638.801
656.182;   86.661;  437.890;  387.198
656.453;  132.739;  830.890;  746.198
656.724;  -52.434; -466.110; -426.802
656.994;  -67.557; -553.109; -568.803
657.265;  -73.404; -862.109; -873.803
657.536;  -61.802; -500.109; -377.804
657.806;  -89.950; -561.109; -593.804
658.077; -118.422; -866.109; -950.804
658.347;  -76.195; -523.108; -598.805
658.618;  -92.492; -646.108; -694.805
658.888;   -5.390;  -41.108;  112.195
659.159;  -68.463; -432.108; -548.806
659.429;   20.890; -292.108; -349.806
659.700;   67.592; -435.107; -390.807
659.970;   45.394; -370.107; -359.807
660.241;   79.122; -754.107; -921.807
660.511;  736.149; -147.107; -174.808
660.781;  189.601; -793.106; -748.808
661.052;  -39.646; -222.106; -381.808
661.322;  -22.694;   21.894;   -9.809
661.592;   15.158;  257.894;  148.191
661.862;  -69.539; -369.106; -382.810
662.133;  -75.287; -551.105; -502.810
662.403; -100.710; -770.105; -676.810
662.673;  -39.807; -256.105; -213.811
662.943;  -90.155; -612.105; -551.811
663.213;    4.297;  -85.105;  -81.811
663.483;  -67.250; -593.104; -568.812
663.753;  -45.198; -194.104; -152.812
664.023;  -18.396;   68.896;  -32.813
664.293;  -53.893; -319.104; -126.813
664.563;  -97.266; -694.104; -648.813
664.833; -115.364; -743.103; -608.814
665.103; -109.136; -730.103; -793.814
665.373;  -97.409; -766.103; -806.814
665.643;  -47.482; -863.103; -918.815
665.913;   95.971; -534.103; -714.815
666.182;  252.423; -685.102; -719.816
666.452;  392.625;  -22.102;  -89.816
666.722;   26.503; -724.102; -784.816
666.992; -110.345; -948.102; -921.817
667.261;  -55.143; -824.102; -808.817
667.531;  321.185;  134.899;   45.183
667.801;  960.212; -440.101; -412.818
668.070;  347.289;  714.899;  697.182
668.340;  -68.708; -883.101; -840.819
668.609;  108.219;  588.900;  301.181
668.879;  -56.854; -490.100; -558.819
669.149;  -53.251; -539.100; -516.820
669.418;  -89.824; -698.100; -726.820
669.688;    5.404; -482.100; -666.820
669.957;  176.431; -423.099; -546.821
670.226;   -4.142; -268.099; -331.821
670.496;  -87.539; -431.099; -635.822
670.765;  -63.712; -418.099; -501.822
671.034; -128.060; -872.099; -828.822
671.304;   -8.582;   55.902; -111.823
671.573; -122.680;-1085.098; -957.823
671.842;  110.972; -380.098; -294.823
672.112;   90.025; -692.098; -586.824
672.381;   25.377; -239.098; -214.824
672.650; -105.071;-1005.097;-1021.825
672.919;  -59.543; -631.097; -507.825
673.188;  -72.416; -681.097; -878.825
673.457; -130.489;-1101.097;-1143.826
673.726;  -61.836; -579.096; -646.826
673.995;  -12.384; -533.096; -479.826
674.265;    7.318; -263.096; -333.827
674.534;   28.146; -183.096; -235.827
674.802;   34.273; -618.096; -703.828
675.071; 1222.250; -886.095; -801.828
675.340; 5456.828; -464.095; -339.828
675.609; 1824.155;  103.905;   82.171
675.878;  165.207; -949.095; -893.829
676.147;   73.535;  -26.095;   -8.829
676.416;  128.237; -210.094; -294.830
676.685;  934.364; 1000.906; -622.830
676.953;  182.267; -603.094; -452.831
677.222;   -0.781; -193.094; -273.831
677.491;  -25.279;  -24.094; -127.831
677.759;   11.149;   11.907;  172.168
678.028;    2.701; -279.093; -222.832
678.297;    1.978;   71.907;  197.168
678.565; -123.144; -898.093; -944.833
678.834;  -49.592; -311.093; -268.833
679.102;  -71.090; -411.092; -391.834
679.371; -120.887; -898.092; -727.834
679.639; -125.435; -797.092; -786.834
679.908; -103.283; -794.092; -724.835
680.176; -135.080; -895.091; -941.835
680.445;  -51.928; -346.091; -352.835
680.713;    4.625;  -58.091;  -23.836
680.982;  -87.973; -523.091; -525.836
681.250;  -97.596; -578.091; -507.837
681.518;  -75.168; -534.090; -751.837
681.787;   -5.816; -204.090; -167.837
682.055;  -43.189; -490.090; -422.838
682.323; -125.836; -993.090; -992.838
682.591;   67.016; -216.090; -538.838
682.859;  143.568;    9.911;  -35.839
683.128;   37.646;  232.911;  497.161
683.396; -145.502;-1102.089;-1122.840
683.664;  -37.850; -241.089;   21.160
683.932;    8.528;  144.911;  -76.840
684.200;  -57.770; -576.088; -320.841
684.468;  -19.743;  -73.088; -124.841
684.736;  -11.315; -214.088; -175.841
685.004;  -78.513;-1024.088; -982.842
685.272;   -3.011; -880.088; -774.842
685.540;  -35.883; -499.087; -557.843
685.808;  -57.856; -651.087; -682.843
686.076;  -73.529; -894.087; -969.843
686.343;  -49.401; -601.087; -815.844
686.611;   71.576; -195.087; -224.844
686.879;  544.103; -530.086; -553.844
687.147; 4492.456; -483.086; -480.845
687.414; 1356.008;  -12.086; -169.845
687.682;   58.685; -658.086; -757.846
687.950;  402.363;  259.915;  263.154
688.217;   70.515; -792.085; -760.846
688.485;   32.692; -632.085; -636.847
688.753;  723.045;  -11.085; -102.847
689.020;  309.597; -820.085; -851.847
689.288;  -75.826; -853.084; -787.848
689.555;  -14.498; -195.084; -148.848
689.823;  -27.621; -241.084; -345.849
690.090;  -68.994; -546.084; -651.849
690.358; -110.291; -877.084; -897.849
690.625;   10.386;  120.917;   45.150
690.892;  -53.237; -403.083; -369.850
691.160;   -5.384;   72.917;  -35.850
691.427;    7.793;  141.917;  130.149
691.694; -100.105; -855.083; -929.851
691.962; -123.802;-1177.082;-1060.852
692.229;   28.725;  127.918;   56.148
692.496;  121.153;  130.918;  -49.852
692.763;   34.980; -164.082; -201.853
693.031;  -31.718; -739.082; -716.853
693.298;   10.135; -509.081; -368.853
693.565;  375.912; -155.081; -163.854
693.832; 1796.964;   -5.081;   -9.854
694.099;  251.442; -643.081; -642.855
694.366;  -18.431; -882.081; -896.855
694.633;   10.071; -920.080; -633.855
694.900;  720.799; 4367.920; -114.856
695.167;  595.176; -214.080; -380.856
695.434;  195.678; -646.080; -623.856
695.701;  265.181;  121.921;  -61.857
695.968;  654.208; -365.079; -361.857
696.234; 1211.060; -415.079; -646.858
696.501;13398.688; -776.079; -614.858
696.768; 7618.315; -554.079; -617.858
697.035;  491.042; -632.078; -667.859
697.302;   89.920; -448.078; -552.859
697.568;   56.272; -458.078; -497.859
697.835;   -0.701; -683.078; -624.860
698.102;    1.177; -498.078; -407.860
698.368;  111.429;  384.923;  396.139
698.635;    5.481;  -47.077; -424.861
698.901;   11.834; -240.077; -348.861
699.168;  119.536; -534.077; -456.862
699.435;  122.363;  -72.077;  -13.862
699.701;  -79.209; -868.076; -764.862
699.968;   32.293;  144.924; -441.863
700.234;  -59.080; -783.076; -822.863
700.500;  -26.302; -448.076; -539.864
700.767;    3.925;   -1.075;   26.136
701.033; -104.598;-1015.075; -963.864
701.299;  -39.120; -450.075; -483.865
701.566;  143.632;  950.925;  763.135
701.832;   68.209;  -31.075;  -76.865
702.098;  -59.213;-1054.074;-1034.866
702.365;  -31.561;-1098.074;-1030.866
702.631;   38.566;-1038.074;-1063.867
702.897; 1728.169; -765.074; -676.867
703.163; 3281.696;  348.926;  254.133
703.429;  268.549; -256.073; -273.868
703.695;   17.126; -796.073; -792.868
703.961;   58.703; -214.073; -210.868
704.227;  -18.019; -630.073; -725.869
704.493;  159.983;  613.927;  510.131
704.759;   27.185; -565.072; -540.870
705.025;   66.913; -203.072; -194.870
705.291;   52.015; -666.072; -562.870
705.557;  246.167;  719.928;   34.129
705.823;  103.245; -742.072; -694.871
706.089;  260.522; -307.071; -326.871
706.355;  491.199; -315.071; -244.872
706.620; 7530.802; -776.071; -729.872
706.886;11866.179; -309.071; -362.873
707.152; 1219.606; -818.070; -973.873
707.418;   74.409;-1153.070;-1186.873
707.683;   67.486; -550.070; -530.874
707.949;    3.513; -547.070; -578.874
708.215;   40.291; -129.070; -207.874
708.480;   23.768; -520.069; -420.875
708.746;  159.920;   68.931;   28.125
709.011;  -30.127; -578.069; -612.876
709.277;  -35.075; -538.069; -543.876
709.542;  -21.423; -428.069; -387.876
709.808;   18.205;  -59.068;   89.123
710.073;  -50.343; -577.068; -695.877
710.339;   -1.291; -242.068; -228.877
710.604;  141.312; -780.068; -845.878
710.869;  508.889; -277.068; -366.878
711.135;  -45.684; -715.067; -628.879
711.400;  -56.206; -507.067; -608.879
711.665;  -24.929; -404.067; -479.879
711.931;  -63.127; -661.067; -677.880
712.196;  -94.074; -876.067; -954.880
712.461;  169.978; -402.066; -490.880
712.726;  273.805; -727.066; -771.881
712.991;  -48.667; -647.066; -664.881
713.256;  -15.890; -350.066; -332.882
713.521;  -21.463; -417.065; -381.882
713.787;  -39.935; -454.065; -472.882
714.052;   18.117; -214.065; -400.883
714.317;  -30.705;-1045.065; -981.883
714.581; 1512.247; -374.065; -268.883
714.846; 2591.399; -822.064; -888.884
715.111;  211.352;  261.936;  257.116
715.376;    2.379;  -86.064; -223.885
715.641;    8.781; -365.064; -367.885
715.906;  462.309;   15.936; -551.885
716.171;  193.336;  221.937;  209.114
716.436;   73.388;  -78.063; -104.886
716.700;  -77.259; -818.063; -692.886
716.965; -102.907; -794.063; -807.887
717.230;  -52.655; -339.063; -392.887
717.494;  -14.827;  -40.062; -134.888
717.759;  -72.975; -784.062; -640.888
718.024;   19.627;  269.938;  250.112
718.288;   82.080;  685.938;  395.111
718.553; -110.818; -803.062; -977.889
718.817; -121.966; -883.061; -899.889
719.082;  -26.713; -115.061; -125.890
719.346; -113.336;-1000.061; -947.890
719.611;  -45.259; -300.061; -255.891
719.875;  -77.056; -568.060; -537.891
720.140;  -41.929; -453.060; -603.891
720.404;   69.723; -136.060; -249.892
720.668; 1144.851; -475.060; -411.892
720.933;  507.753;  146.940;  137.108
721.197;  -81.845; -667.059; -600.893
721.461; -114.667; -851.059; -826.893
721.725;   -1.815;  -21.059; -250.894
721.990;  -35.738; -284.059; -204.894
722.254;  -17.110;  -26.059; -108.894
722.518;  -47.708; -286.058; -442.895
722.782;  -72.606; -743.058; -594.895
723.046;  159.522;  614.942;  570.105
723.310;   44.574;  374.942;  210.104
723.574;  -61.999; -654.058; -614.896
723.838;  -93.721; -576.057; -642.897
724.102;  -32.869; -226.057; -239.897
724.366; -117.492;-1032.057; -978.897
724.630;  -78.764; -749.057; -571.898
724.894;  -56.887; -722.057; -514.898
725.158;    2.366;   38.944; -295.898
725.422;  -14.582; -394.056; -327.899
725.685;  -43.055; -441.056; -349.899
725.949;  -44.177; -566.056; -519.900
726.213;  -26.475; -732.056; -811.900
726.477;  306.527;-1020.055; -933.900
726.740;  260.930; -274.055; -104.901
727.004;  487.407; -384.055; -510.901
727.268; 5022.834; -442.055; -400.901
727.531; 1775.662; -961.055; -775.902
727.795;   15.464; -713.054; -673.902
728.059;  -11.309; -552.054; -557.903
728.322;  -54.931; -841.054; -669.903
728.586;   97.471; -692.054; -701.903
728.849;  -32.852; -695.053; -756.904
729.112;  -89.724; -812.053; -912.904
729.376;  -87.772; -959.053; -905.904
729.639;  -48.395; -536.053; -536.905
729.903;  -80.017; -733.053; -699.905
730.166;  -31.840; -437.052; -399.906
730.429;  -15.713; -317.052; -468.906
730.693;  -32.260; -355.052; -894.906
730.956;  227.492;  810.948;  651.093
731.219; 1027.794; -310.052; -103.907
731.482;  220.722;-1003.051; -894.907
731.745;  243.474; -794.051; -935.908
732.009;   40.201;  -30.051;   50.092
732.272;  -72.096; -904.051; -771.909
732.535;  -28.444; -300.051; -310.909
732.798; -130.992;-1083.050;-1166.909
733.061;  -37.839; -430.050; -456.910
733.324;   27.313;   31.950; -180.910
733.587;   84.015;  290.950;  365.090
733.850;  -48.957; -973.049;-1050.911
734.113;   58.720;   33.951;   32.089
734.376;   37.297; -328.049; -447.912
734.639;  253.175; 1188.951; 1011.088
734.901;  114.602; -180.049; -402.912
735.164;  648.279; -883.048; -837.913
735.427; 1939.607; -166.048; -355.913
735.690;  189.534; -205.048; -234.913
735.952;   36.986; -923.048; -925.914
736.215;   41.464;-1113.048;-1009.914
736.478;  104.416; -771.047; -774.915
736.740;  321.769;   33.953;  129.085
737.003;  779.771; -658.047; -672.915
737.266; 5513.173;  -94.047;   46.084
737.528;  697.851; -682.047; -660.916
737.791;  460.153; -316.046; -327.916
738.053;  988.905;  465.954;  649.083
738.316;13327.083; -162.046; -136.917
738.578;11729.485; -770.046; -736.918
738.841;  689.412; -382.046; -446.918
739.103;  301.490; -875.045; -777.918
739.365;  752.867;   79.955;  -69.919
739.628;   73.369; -884.045; -805.919
739.890;   14.272; -758.045; -710.919
740.152;   12.524; -692.044; -754.920
740.414;   33.751; -408.044; -359.920
740.677;    7.229; -785.044; -634.921
740.939;   13.556; -587.044; -487.921
741.201;  387.683; -432.044; -572.921
741.463;  127.861; -689.043; -745.922
741.725;   54.113;  -21.043; -199.922
741.987;   75.490;  220.957;  116.078
742.249;   66.993; -751.043; -859.923
742.511;  324.220; -703.043; -794.923
742.773;   88.272; -546.042; -546.924
743.035;  173.950;  796.958;  533.076
743.297;    3.902; -963.042;-1013.924
743.559; 1030.129; -278.042; -262.925
743.821;  181.607; -735.042; -744.925
744.083;   35.634;  -44.041; -149.925
744.345;  -41.439; -869.041; -892.926
744.607;   59.414;   75.959;  122.074
744.868;  -25.409; -490.041; -554.927
745.130;  -62.407; -994.041;-1008.927
745.392;   76.646;   -1.040;  -44.927
745.653;   20.698; -411.040; -378.928
745.915;  177.900;  896.960;  631.072
746.177;  108.703;   35.960;  -43.928
746.438;   63.955; -428.040; -543.929
746.700;   14.807; -947.039; -988.929
746.961;   76.885; -659.039; -740.930
747.223;  246.012; -190.039;  -74.930
747.484;  190.865; -391.039; -471.930
747.746;  253.042;  -23.038; -106.931
748.007;  225.794; -647.038; -689.931
748.269;  447.847; -468.038; -440.931
748.530;  762.849; -852.038; -638.932
748.791;  423.851; -354.038; -420.932
749.053;  610.504;  286.963;  163.067
749.314;  676.956; -236.037; -169.933
749.575;  833.233; -945.037; -905.933
749.836; 1275.536; -217.037;   86.066
750.098; 3033.313;  -60.037;  -21.934
750.359;48702.515;  414.964;  555.066
750.620;16066.643; -121.036; -220.935
750.881; 1521.895; -585.036; -513.935
751.142; 1903.222; -950.036; -938.936
751.403;21090.925; -789.036; -705.936
751.664;12092.652;-1034.035; -999.936
751.925;  764.079; -175.035; -262.937
752.186;  442.057; -298.035; -278.937
752.447;  251.184; -590.035; -445.937
752.708;  140.336; -532.035; -648.938
752.969;   77.789; -566.034; -576.938
753.230;   67.416; -777.034; -672.939
753.491;   57.143; -650.034; -631.939
753.751;  107.596;  109.966;   19.061
754.012;  140.023;  258.967;  181.060
754.273;  113.175; -174.033;  -71.940
754.534;   77.803; -487.033; -580.940
754.794;  -36.920; -926.033; -911.941
755.055;  166.857; 1051.967;  881.059
755.316;    0.160; -700.032; -566.942
755.576;   18.137; -606.032; -576.942
755.837;    2.289; -527.032; -695.942
756.097;   -3.258; -530.032; -564.943
756.358;  -30.056; -725.032; -770.943
756.618;  -14.154; -705.031; -641.943
756.879;   46.249; -254.031; -349.944
757.139;  -84.349;-1098.031;-1116.944
757.400;  -25.997; -538.031; -553.945
757.660;    3.181; -365.031; -401.945
757.920;   66.333; -266.030; -228.945
758.181;   18.011; -468.030; -351.946
758.441;  -53.887; -870.030; -809.946
758.701;    2.515; -308.030; -215.946
758.961;   -7.207; -220.030; -278.947
759.222;  -15.255; -574.029; -502.947
759.482;  -49.028; -683.029; -723.948
759.742;  -57.800; -706.029; -547.948
760.002;   21.702;  -83.029; -143.948
760.262;   45.004;   50.972;  182.051
760.522;   -4.368; -498.028; -574.949
760.782;  -12.866; -738.028; -612.949
761.042;    0.586; -618.028; -573.950
761.302;   73.414;   55.972;  -18.950
761.562;   79.116; -164.027; -154.951
761.822;  146.043; -710.027; -551.951
762.082;   13.496;-1104.027;-1093.951
762.342;  106.773; -328.027; -403.952
762.601;  120.650; -567.027; -506.952
762.861;  446.428; -281.026; -207.952
763.121;  443.155; -406.026; -411.953
763.381; 7058.157; -499.026; -485.953
763.640;10375.185; -139.026; -307.954
763.900;  451.887; -242.026; -203.954
764.160;  129.339; -458.025; -491.954
764.419;   26.317; -726.025; -782.955
764.679;  -59.206; -795.025; -726.955
764.939;    3.971; -124.025; -210.955
765.198;  -59.326; -608.025; -563.956
765.458;  -70.699; -710.024; -612.956
765.717;  -52.572; -454.024; -590.957
765.976;  -46.319; -428.024; -411.957
766.236;  -62.742; -475.024; -610.957
766.495;   11.235;  260.977;   73.042
766.755;  -51.487;-1090.023; -987.958
767.014;   47.440; -594.023; -665.958
767.273;  -19.233; -373.023; -397.959
767.533;  -23.980; -228.023; -307.959
767.792;  -16.778; -151.022; -188.960
768.051;  -28.626; -228.022; -276.960
768.310;  -61.148; -546.022; -650.960
768.569;   -7.196; -161.022;    4.039
768.828;   -9.668; -285.022; -363.961
769.088;  -66.666;-1050.021; -942.961
769.347;  -60.689; -755.021; -599.962
769.606;  -70.736; -876.021; -857.962
769.865;  -84.259;-1016.021;-1033.963
770.124;   35.618; -411.021; -336.963
770.383;    1.621; -778.020; -910.963
770.641;   34.023; -398.020; -400.964
770.900;  -21.875; -953.020; -846.964
771.159;   11.003; -851.020; -951.964
771.418;   35.830; -917.020; -779.965
771.677;  198.907; -224.019; -293.965
771.936;  258.735; -794.019; -865.966
772.194; 2372.662; -465.019; -437.966
772.453;15716.664; -213.019; -391.966
772.712; 1216.692;  416.982;  329.033
772.970;  188.819;   32.982;   63.033
773.229;  136.571;  -22.018;  102.033
773.488;  -46.926; -814.018; -770.968
773.746;   73.926;  296.982;  335.032
774.005;   21.928;  190.983;  -22.969
774.263;   31.456;  243.983;  177.031
774.522;  -18.542; -422.017; -548.969
774.780;  -58.590; -484.017; -417.970
775.039;  -67.487; -551.017; -531.970
775.297;  -14.785; -135.016; -351.970
775.555;  -83.683; -489.016; -612.971
775.814;  -99.705; -618.016; -570.971
776.072; -109.628; -749.016; -740.971
776.330;  -80.176; -630.016; -520.972
776.589; -106.723; -703.015; -721.972
776.847; -104.321; -645.015; -624.973
777.105; -146.269;-1016.015;-1032.973
777.363;  -69.466; -459.015; -454.973
777.621; -122.739; -660.015; -717.974
777.879;  -10.262;  -42.014;   32.026
778.138;  -75.759; -554.014; -717.974
778.396;  -97.582; -585.014; -526.975
778.654; -140.355;-1015.014; -970.975
778.912;  -58.127; -269.014; -371.976
779.170; -119.975; -880.013; -803.976
779.427; -123.523; -922.013; -897.976
779.685; -117.395; -880.013; -832.977
779.943;  -59.143; -654.013; -593.977
780.201; -139.915; -964.012; -883.978
780.459; -108.438; -651.012; -610.978
780.717;  -76.986; -440.012; -390.978
780.974;  -81.558; -449.012; -490.979
781.232;  -75.131; -358.012; -338.979
781.490;  -45.779; -551.011; -472.979
781.747;  -99.026; -555.011; -476.980
782.005;   25.501;  462.989;  254.020
782.263; -154.497; -542.011;-1004.981
782.520;  -82.044; -326.011; -501.981
782.778; -136.917;-1013.010;-1051.981
783.035; -149.490; -962.010; -938.982
783.293;  -54.037; -248.010; -206.982
783.550;  -51.985; -134.010; -198.982
783.808; -122.058; -764.010; -776.983
784.065; -138.880; -745.009; -874.983
784.322;  -32.953;   25.991;  -86.984
784.580; -129.551; -915.009; -771.984
784.837;  -87.798; -392.009; -466.984
785.094; -116.546; -783.009; -762.985
785.352;  -54.569; -304.008; -404.985
785.609;  -67.041; -934.008; -839.985
785.866;  -74.589; -345.008; -401.986
786.123;  -41.162; -639.008; -583.986
786.380;  -77.134; -665.008; -604.987
786.637;  -32.207; -225.007; -380.987
786.895;   40.620; -456.007; -543.987
787.152;  -36.002; -135.007; -267.988
787.409;  -35.000; -123.007; -225.988
787.666;  -76.723; -299.006; -378.988
787.923;  -90.545; -616.006; -695.989
788.179;  -95.218; -551.006; -584.989
788.436;  -88.791; -585.006; -585.990
788.693;  -14.588;  -92.006;  -87.990
788.950;  166.339; -125.005; -112.990
789.207;  391.891; -381.005; -372.991
789.464;  -29.981; -161.005; -301.991
789.720;    0.521;  150.995;  110.009
789.977; -145.277;-1003.005; -671.992
790.234;  -41.224;   44.996;  -66.992
790.490; -126.222; -884.004;-1031.993
790.747;   -5.219;  -85.004;   22.007
791.004;  -10.017; -426.004; -348.993
791.260;  -64.815; -430.004; -560.994
791.517;  -79.737; -843.003; -788.994
791.773;  -17.610; -379.003; -342.994
792.030;  -83.133; -596.003; -660.995
792.286;  -77.080; -686.003; -636.995
792.543;  -14.053;  -74.002; -159.995
792.799;  -41.876; -584.002; -382.996
793.055; -138.173;-1179.002;-1210.996
793.312;  -60.046; -827.002; -816.997
793.568;  -38.319; -746.002; -599.997
793.824;   40.484; -226.001; -284.997
794.081;   50.111; -447.001; -508.998
794.337;  101.413; -664.001; -561.998
794.593; 1092.241; -319.001; -271.999
794.849; 7939.993; -746.001; -772.999
795.105;  561.095; -270.000; -261.999
795.361;   47.948; -490.000; -457.000
795.617;  -22.575; -875.000; -945.000
795.873;  -25.825; -360.000; -407.000
796.129;  -25.800; -368.000; -306.000
796.385;   -8.375; -124.000; -156.000
796.641;   76.000;  412.000;  550.000
796.897;  -62.325; -666.000; -635.000
797.153;   83.425;  453.000;  357.000
797.409;  -67.175; -785.000; -868.000
797.665;  -43.825; -625.000; -732.000
797.921;  -44.475; -775.000; -762.000
798.176;  -18.450; -744.000; -747.000
798.432;   -5.375; -824.000; -596.000
798.688;  -11.250;-1174.000;-1078.000
798.943;  141.575; -165.000; -147.000
799.199;   84.300;-1005.000; -959.000
799.455;  303.725;  369.000;  316.000
799.710;  243.650; -813.000; -380.000
799.966;  451.600; -162.000; -160.000
800.221;  664.600; -638.000; -721.000
800.477;11803.500; -743.000; -710.000
800.732;14820.525; -773.000; -800.000
800.988;  932.625;  205.000;  -19.000
801.243; 1872.375; -454.000; -344.000
801.498;11345.550; -814.000; -739.000
801.754;  859.900; -289.000; -163.000
802.009;  166.225; -257.000; -335.000
802.264;   12.075; -967.000;-1033.000
802.520;   60.300;  222.000;   -3.000
802.775;  -15.450; -524.000; -359.000
803.030;   65.350;  395.000;  356.000
803.285;  -83.300; -840.000; -903.000
803.540;  -23.325; -686.000; -699.000
803.795;   -6.925; -648.000; -583.000
804.051;  -18.175; -279.000; -346.000
804.306;   23.675;  168.000;  128.000
804.561;  188.800;  451.000;  362.000
804.816;  141.275;  714.000;  861.000
805.071;   11.350; -185.000; -280.000
805.325;  319.225; -257.000; -427.000
805.580;  -56.875; -841.000; -877.000
805.835;   10.175; -204.000; -297.000
806.090;  -42.675; -760.000; -676.000
806.345;    3.125; -344.000; -264.000
806.600;    3.800; -549.000; -632.000
806.854;   -3.175; -408.000; -538.000
807.109;    8.100; -493.000; -577.000
807.364;   20.875; -407.000; -328.000
807.618;   36.575; -415.000; -381.000
807.873;   91.775; -470.000; -494.000
808.128;  140.425; -257.000; -518.000
808.382;  167.325; -224.000; -332.000
808.637;  109.600; -440.000; -511.000
808.891;  227.100; -257.000; -180.000
809.146;  152.950; -902.000; -794.000
809.400;  347.775; -848.000; -923.000
809.654;  433.450; -779.000; -551.000
809.909;  578.750; -841.000; -927.000
810.163; 5777.600; -813.000; -651.000
810.418;21616.200; -940.000; -861.000
810.672; 1490.450; -685.000; -690.000
810.926;  857.175; -993.000; -973.000
811.180; 1476.475; -439.000; -372.000
811.434;31704.775;  240.000;  135.000
811.689;18645.525; -231.000; -365.000
811.943;  898.000; -936.000; -953.000
812.197;  444.650; -893.000; -671.000
812.451;  219.700; -379.000; -514.000
812.705;   17.150; -809.000; -619.000
812.959;   24.575; -263.000; -388.000
813.213;   15.425; -283.000; -209.000
813.467;   93.825;  470.000;  253.000
813.721;  -73.275; -764.000; -792.000
813.975;  -90.750; -826.000; -877.000
814.229;   55.450;  430.000;  353.000
814.482;  -58.125; -517.000; -566.000
814.736;  -90.600; -766.000; -744.000
814.990; -121.475; -779.000; -872.000
815.244;  -27.275; -228.000; -285.000
815.497;  -75.050; -636.000; -601.000
815.751;    2.650; -141.000;   82.000
816.005;  -70.000; -470.000; -586.000
816.258;  -69.075; -510.000; -363.000
816.512; -100.275; -693.000; -610.000
816.766;   -0.450;  121.000;  157.000
817.019;   27.775;  148.000;  149.000
817.273;  -85.825;-1000.000; -802.000
817.526;  -28.875; -206.000; -173.000
817.779;  -11.550;-1049.000; -960.000
818.033;  -24.625; -693.000; -807.000
818.286; -106.975; -725.000; -792.000
818.540;  -69.225; -403.000; -403.000
818.793;  -64.650; -402.000; -489.000
819.046;  -83.875; -582.000; -520.000
819.299;  -27.475; -157.000; -166.000
819.553; -105.725; -552.000; -592.000
819.806; -145.950;-1016.000; -838.000
820.059;  -73.550; -334.000; -354.000
820.312;   21.625;  152.000;  185.000
820.565;  -17.525;  110.000;  -27.000
820.818;  -43.125;  -59.000; -173.000
821.071; -144.400;-1041.000; -957.000
821.324;  -83.650; -536.000; -540.000
821.577;  -83.625; -457.000; -483.000
821.830;  -64.000; -270.000; -172.000
822.083; -115.525; -733.000; -288.000
822.336;  -35.875; -261.000; -167.000
822.589; -102.050; -805.000; -688.000
822.842; -131.375; -875.000; -770.000
823.094; -159.125;-1076.000;-1114.000
823.347; -100.100; -925.000; -729.000
823.600;   12.050;  402.000;  187.000
823.853;  -34.625; -311.000; -267.000
824.105;  -57.475; -331.000; -575.000
824.358;  -82.250; -617.000; -716.000
824.611;   47.750;  234.000;   40.000
824.863;   -7.675; -612.000; -591.000
825.116;   87.775;  -33.000;   27.000
825.368;  128.050; -366.000; -372.000
825.621;  263.675; -186.000; -240.000
825.873;  182.975; -704.000; -737.000
826.126;  704.675; -669.000; -641.000
826.378;14553.000; -389.000; -505.000
826.630; 5563.675; -890.000; -898.000
826.883;  174.250; -754.000; -693.000
827.135;  105.700; -279.000; -270.000
827.387;  -70.675; -893.000; -839.000
827.639;   -7.325;  -86.000;   32.000
827.892; -105.025; -742.000; -582.000
828.144; -128.650; -848.000; -804.000
828.396;  -40.475;  104.000;  -80.000
828.648;  -87.150; -440.000; -333.000
828.900; -128.625; -702.000; -795.000
829.152;  -95.975; -684.000; -683.000
829.404;  -53.425; -215.000; -267.000
829.656;    1.725;  321.000;  214.000
829.908;  -22.775;  393.000;  229.000
830.160; -144.075;-1064.000;-1047.000
830.412;  -87.475; -481.000; -430.000
830.664; -108.375; -557.000; -665.000
830.916;  -60.225; -268.000; -206.000
831.167; -160.000;-1073.000; -951.000
831.419;  -98.025; -623.000; -566.000
831.671; -133.275; -764.000; -809.000
831.923;  -82.350; -311.000; -447.000
832.174;  -76.050; -273.000; -331.000
832.426; -103.600; -493.000; -582.000
832.678; -169.850;-1043.000;-1091.000
832.929; -152.975; -947.000; -935.000
833.181;  -34.725; -575.000; -677.000
833.432;  -33.550;  -59.000; -186.000
833.684;  -12.375;  112.000;  -27.000
833.935; -109.075; -610.000; -566.000
834.187; -109.225; -829.000; -823.000
834.438;  -44.500;  -58.000;  -25.000
834.689;  -40.600; -255.000; -123.000
834.941;  -44.050; -343.000; -244.000
835.192;  -83.000; -590.000; -533.000
835.443; -104.375; -419.000; -506.000
835.695;   -6.050;  138.000;  -16.000
835.946;  -85.325; -608.000; -378.000
836.197;  -95.350; -599.000; -622.000
836.448;  -73.075; -528.000; -395.000
836.699;  -50.325; -253.000; -341.000
836.950;   -4.375;   72.000;    7.000
837.201; -131.650;-1003.000; -987.000
837.452;  -25.325; -356.000; -170.000
837.703;  -92.275; -791.000; -737.000
837.954;  -12.900; -205.000; -365.000
838.205;  -49.850;-1029.000;-1008.000
838.456;  269.700; -196.000; -282.000
838.707;   47.825; -423.000; -519.000
838.958;   66.575; -634.000; -647.000
839.209;  394.250;   18.000;   40.000
839.460;  181.575; -439.000; -201.000
839.710;  240.575; -135.000; -297.000
839.961;  536.450;  730.000;  612.000
840.212;  454.925; -382.000; -497.000
840.462; 1308.800; -328.000; -277.000
840.713;20772.850; -571.000; -536.000
840.964;12376.800;  -62.000; -143.000
841.214;  766.150; -384.000; -624.000
841.465;  722.050; -214.000; -141.000
841.715;  611.275; -417.000; -380.000
841.966;  732.400; -746.000; -685.000
842.216; 7302.150; -330.000; -431.000
842.466;39390.650; -169.000; -313.000
842.717; 3471.925; -964.000; -952.000
842.967;  380.225; -635.000; -641.000
843.217;  341.000;   20.000;   28.000
843.468;  106.625; -104.000; -132.000
843.718;    3.575; -718.000; -726.000
843.968;  -49.000; -837.000; -765.000
844.218;   46.975; -315.000; -262.000
844.469;  -17.150; -577.000; -561.000
844.719;  -91.200; -537.000; -682.000
844.969;  -84.575; -550.000; -580.000
845.219; -130.550; -814.000; -862.000
845.469;  -59.075; -392.000; -342.000
845.719; -132.450; -792.000; -884.000
845.969;    0.650;  119.000;  174.000
846.219;  -99.700; -738.000; -720.000
846.469;   29.350;  464.000;  432.000
846.718;  -39.350; -115.000;   31.000
846.968; -120.825; -827.000; -827.000
847.218;  -34.175; -224.000; -371.000
847.468;    0.175; -586.000; -555.000
847.718; -132.750; -827.000; -798.000
847.967; -108.100; -826.000; -915.000
848.217;  -72.975; -449.000; -569.000
848.467;  -36.900; -405.000; -376.000
848.716;  -83.100; -708.000; -725.000
848.966;   38.525; -372.000; -358.000
849.215;  -27.350; -428.000; -419.000
849.465;  -58.925; -785.000; -615.000
849.714; -100.650;-1132.000;-1150.000
849.964;  -26.650; -551.000; -613.000
850.213;   -4.100; -393.000; -355.000
850.463;  116.075;  137.000;  340.000
850.712;   51.450; -542.000; -567.000
850.961;   91.250; -739.000; -678.000
851.211;  203.125; -513.000; -504.000
851.460;  299.175; -635.000; -650.000
851.709;  737.825;  -25.000;   18.000
851.958;11762.725; -912.000; -750.000
852.208;21204.200; -859.000; -879.000
852.457;  936.800; -181.000;  -13.000
852.706;  196.525; -791.000; -823.000
852.955;  112.650; -507.000; -528.000
853.204;  -33.475; -521.000; -461.000
853.453;  -51.950; -418.000; -458.000
853.702;  -95.300; -660.000; -750.000
853.951;  -86.225; -532.000; -520.000
854.200;  -88.150; -613.000; -562.000
854.449; -113.125; -695.000; -661.000
854.698;  -91.050; -340.000; -279.000
854.946;  -59.000; -181.000; -284.000
855.195; -137.425; -843.000; -868.000
855.444;  -93.025; -395.000; -420.000
855.693; -117.375; -345.000; -432.000
855.941;  -95.800; -387.000; -516.000
856.190;  -43.250; -256.000; -382.000
856.439; -114.825; -652.000; -703.000
856.687;  -56.100;  -99.000;  -72.000
856.936; -102.600; -621.000; -323.000
857.184; -169.475;-1067.000;-1020.000
857.433;  -93.775; -423.000; -512.000
857.681; -145.275; -989.000; -953.000
857.930;  -59.250; -282.000; -433.000
858.178; -154.650; -856.000; -929.000
858.427; -139.075; -802.000; -781.000
858.675; -108.775; -377.000; -544.000
858.923;  -95.300; -527.000; -819.000
859.172; -166.350;-1094.000;-1070.000
859.420;  -81.925; -339.000; -239.000
859.668; -117.150; -624.000; -628.000
859.916;  -14.150;  109.000;  115.000
860.164;  -86.525; -699.000; -603.000
860.413;  339.675; -878.000; -696.000
860.661;  468.050; -709.000; -577.000
860.909;  -66.150; -339.000; -325.000
861.157;  -88.225; -277.000; -444.000
861.405; -115.850; -534.000; -670.000
861.653;    8.875;  310.000;  310.000
861.901;  236.625; -543.000; -613.000
862.149;  133.850; -801.000; -824.000
862.396;  -76.425; -297.000; -187.000
862.644;  -77.450; -368.000; -347.000
862.892;  -17.800;   98.000;  138.000
863.140;  -97.425; -549.000; -530.000
863.388; -145.500; -815.000; -759.000
863.635; -123.925; -642.000; -601.000
863.883;  -12.075;  231.000;  190.000
864.131;  -87.275; -288.000; -357.000
864.378; -119.775; -675.000; -540.000
864.626;  -95.275; -347.000; -415.000
864.873; -105.925; -556.000; -505.000
865.121; -131.950; -714.000; -799.000
865.368;  -14.225; -173.000;   75.000
865.616;  -20.700;  -33.000;  -40.000
865.863;  -36.350; -462.000; -506.000
866.111;  -59.200; -795.000; -824.000
866.358;   84.150; -426.000; -420.000
866.605; 2932.650;  -64.000; -804.000
866.853; 4524.875; -621.000; -537.000
867.100;  119.425; -728.000; -775.000
867.347;  -56.725; -672.000; -611.000
867.594;  -52.300; -740.000; -714.000
867.841;  140.375;   97.000;   17.000
868.089; -121.075; -746.000; -698.000
868.336;  -97.125; -477.000; -420.000
868.583; -129.500; -637.000; -741.000
868.830;  -57.325; -131.000; -170.000
869.077; -145.025; -859.000; -787.000
869.324; -117.625; -502.000; -458.000
869.571; -122.425; -398.000; -430.000
869.818; -116.875; -485.000; -439.000
870.065;  -90.650; -439.000; -513.000
870.311;  -95.925; -456.000; -542.000
870.558; -102.775; -332.000; -311.000
870.805;  -88.875; -320.000; -384.000
871.052; -110.675; -494.000; -369.000
871.298;  -49.975; -204.000; -131.000
871.545;  -60.775; -151.000; -185.000
871.792;  -86.175; -173.000; -222.000
872.038;  -67.150;   43.000; -126.000
872.285; -125.750; -496.000; -387.000
872.532;  -79.875; -357.000; -387.000
872.778;   16.300;  556.000;  403.000
873.025;  -87.675; -384.000; -359.000
873.271;   17.925;  501.000;  578.000
873.517;  -17.050; -133.000; -209.000
873.764;   -7.450; -193.000;  -80.000
874.010;  -70.525; -143.000; -230.000
874.257;  -37.875;  123.000;   90.000
874.503; -130.150; -579.000; -479.000
874.749;  -57.050;   31.000;  275.000
874.995;  -66.850;  -80.000;  -20.000
875.242; -108.175; -540.000; -478.000
875.488;  -96.925; -414.000; -439.000
875.734;  -42.425; -106.000; -234.000
875.980;  231.050; -872.000;-1032.000
876.226;  648.000; -157.000; -255.000
876.472;    7.600;  343.000;  237.000
876.718;  -35.825;  184.000;  158.000
876.964;  -37.700;   56.000;   55.000
877.210; -135.825; -547.000; -677.000
877.456; -124.075; -630.000; -557.000
877.702; -164.850; -821.000; -832.000
877.948; -102.250; -377.000; -497.000
878.193;  -21.325;  361.000;  255.000
878.439;  -77.175; -487.000; -472.000
878.685;  -95.725; -272.000; -343.000
878.931; -133.850; -618.000; -676.000
879.176;  -71.700; -201.000; -201.000
879.422; -169.100; -933.000; -820.000
879.668;   56.250;   10.000;   79.000
879.913;  222.950;   53.000;  137.000
880.159;  -28.100; -112.000;  -17.000
880.404;  -57.075; -152.000; -162.000
880.650;  -39.600;   91.000;  141.000
880.895; -156.375; -670.000; -710.000
881.141; -118.500; -454.000; -428.000
881.386; -144.625; -503.000; -658.000
881.631;  -77.950; -311.000; -166.000
881.877;  -30.675;  112.000;  -13.000
882.122; -112.750; -684.000; -600.000
882.367;  -85.250; -136.000; -186.000
882.612;  -71.650;  -80.000; -176.000
882.858; -162.400; -877.000; -823.000
883.103;  -79.925; -297.000; -267.000
883.348; -146.975; -759.000; -852.000
883.593; -127.825; -677.000; -602.000
883.838;  -48.525; -311.000;  -24.000
884.083;   56.000;  353.000;  288.000
884.328;  -97.825; -564.000; -545.000
884.573;  -39.050; -196.000; -143.000
884.818;  252.275; -694.000; -531.000
885.063;  383.175; -348.000; -315.000
885.308;  -79.000; -475.000; -398.000
885.553;  -10.225;  245.000;  325.000
885.797; -123.125; -545.000; -615.000
886.042;  -51.875;    8.000;   58.000
886.287;  -84.075; -253.000; -211.000
886.532;  -60.100;   26.000;  204.000
886.776; -109.325; -407.000; -525.000
887.021; -117.500; -621.000; -574.000
887.265; -143.575; -685.000; -689.000
887.510; -112.450; -557.000; -496.000
887.755;  -95.750; -194.000; -164.000
887.999; -125.600; -552.000; -575.000
888.244;  -73.600;  -58.000;  161.000
888.488;  -12.800;  371.000;  393.000
888.732; -123.375; -368.000; -520.000
888.977; -115.550; -622.000; -567.000
889.221; -126.300; -683.000; -659.000
889.465; -114.300; -422.000; -566.000
889.710;  -79.500;  -56.000; -299.000
889.954;   -8.200;  579.000;  467.000
890.198; -152.275; -584.000; -707.000
890.442; -139.575; -716.000; -712.000
890.687; -154.100; -800.000; -753.000
890.931;  -90.825; -273.000; -210.000
891.175; -131.050; -502.000; -500.000
891.419;  -67.800; -105.000; -110.000
891.663;  -84.950; -239.000; -112.000
891.907; -149.650; -801.000; -545.000
892.151; -181.400; -920.000; -815.000
892.395; -103.000; -274.000; -387.000
892.638;  -24.725;  408.000;  291.000
892.882; -160.050; -780.000; -867.000
893.126;    2.950;  758.000;  558.000
893.370;  -87.150; -167.000; -168.000
893.614; -135.700; -714.000; -715.000
893.857;  -93.075; -183.000; -197.000
894.101; -128.425; -527.000; -631.000
894.345;  -71.075;  300.000;  150.000
894.588;   -0.950;  569.000;  380.000
894.832;  -78.900; -178.000;  -84.000
895.075;  -75.500;   15.000;  -92.000
895.319; -119.225; -552.000; -420.000
895.563; -112.275; -413.000; -353.000
895.806; -126.750; -628.000; -741.000
896.049;  -54.650; -576.000; -368.000
896.293;  133.425;  527.000;  405.000
896.536;  -30.125; -465.000; -468.000
896.779;  -55.375; -149.000;   -1.000
897.023; -122.525; -751.000; -714.000
897.266;  -22.475;  325.000;  269.000
897.509; -170.450; -900.000; -901.000
897.752;  -55.775;  149.000;  171.000
897.996; -184.075; -972.000; -864.000
898.239;  -44.275;  168.000;  102.000
898.482; -118.550; -431.000; -453.000
898.725;  -40.500;  101.000;   53.000
898.968; -129.150; -609.000; -744.000
899.211;  -95.100; -513.000; -361.000
899.454; -101.075; -633.000; -539.000
899.697;  -72.050;   90.000;  -43.000
899.940; -167.775; -761.000; -757.000
900.182; -105.150; -335.000; -405.000
900.425;  -88.175; -150.000; -298.000
900.668;  -16.550;  491.000;  350.000
900.911;  -86.525; -292.000; -345.000
901.154;  -50.925;  141.000;   -3.000
901.396; -127.775; -407.000; -412.000
901.639; -119.425; -430.000; -496.000
901.882; -167.575; -790.000; -809.000
902.124;  -83.550;  -29.000; -143.000
902.367; -120.900; -315.000; -361.000
902.609; -119.925; -476.000; -453.000
902.852;  -75.875; -108.000; -260.000
903.094; -116.525; -458.000; -337.000
903.337;  -65.350;  -26.000;   53.000
903.579; -112.050; -228.000; -441.000
903.821; -144.775; -597.000; -744.000
904.064;  -57.000;   85.000;  127.000
904.306;  -77.225; -126.000; -166.000
904.548;  -94.325; -152.000; -366.000
904.790;  -98.675; -195.000; -340.000
905.033; -124.475; -625.000; -577.000
905.275; -115.425; -513.000; -524.000
905.517;   50.550;  468.000;  256.000
905.759;  -16.025; -667.000; -761.000
906.001;  -64.750; -322.000; -369.000
906.243;  -39.675; -162.000; -224.000
906.485;  142.725; -265.000; -207.000
906.727;  270.325; -499.000; -542.000
906.969;    2.525;  -30.000; -135.000
907.211;  183.400; -316.000; -382.000
907.453;  417.250; -188.000; -237.000
907.695;   84.825; -158.000; -385.000
907.936;   29.625;  818.000;  706.000
908.178;  -54.325;   92.000; -135.000
908.420;  -56.300; -111.000; -162.000
908.662; -118.525; -633.000; -682.000
908.903;  -66.450; -208.000; -123.000
909.145;  -47.450; -240.000; -305.000
909.386;   14.025;  315.000;  280.000
909.628;   54.875;  363.000;  397.000
909.870;   15.325;   29.000;  264.000
910.111;  -60.175; -809.000; -949.000
910.353;   47.625; -123.000; -161.000
910.594;   37.550; -574.000; -606.000
910.835;  118.750; -265.000; -326.000
911.077;  214.650; -503.000; -604.000
911.318;  367.450; -505.000; -471.000
911.559;  577.675; -577.000; -880.000
911.801; 1411.925; -284.000; -280.000
912.042; 9851.875;  -50.000; -159.000
912.283;32610.825;  404.000;  371.000
912.524; 7230.875; -396.000; -457.000
912.765;  744.350; -193.000;   79.000
913.006;  339.450; -307.000; -338.000
913.247;  129.850; -270.000; -290.000
913.488;   22.675;  -43.000;   30.000
913.729;  -53.900; -373.000; -373.000
913.970;  -53.850;  -96.000; -292.000
914.211;  -68.700; -160.000; -198.000
914.452;  -49.600; -118.000;  -11.000
914.693;    8.925;  510.000;  592.000
914.934;   21.075;  510.000;  440.000
915.175;  -61.500;   53.000;  -95.000
915.415;  -58.750; -137.000;   27.000
915.656;  -52.925;  -28.000;  192.000
915.897;  -85.275; -252.000;  -82.000
916.137;  -60.950;   74.000;   -9.000
916.378; -120.075; -573.000; -517.000
916.619;  -77.525; -159.000;  -63.000
916.859;  -27.775;  303.000;  330.000
917.100;  128.900; 1655.000; 1070.000
917.340;   49.075;  930.000;  728.000
917.581;   58.525;  965.000;  789.000
917.821;   -2.300; -171.000;  143.000
918.061;   82.000; -199.000;  -72.000
918.302;  -22.075; -152.000; -211.000
918.542;    9.900;  -22.000;    3.000
918.782;   75.525;  369.000;  377.000
919.023;  180.925;  360.000;  427.000
919.263; 1507.950; 8131.000;  202.000
919.503; 1851.900; -137.000;  -54.000
919.743;  903.550;  390.000;  266.000
919.983;  505.850; -134.000;  -26.000
920.223;  160.525;  135.000;   14.000
920.463;  216.925;  631.000;  554.000
920.703;  228.225;   84.000;   39.000
920.943;  287.925; -110.000;   90.000
921.183;  383.425; -414.000; -405.000
921.423;  750.875;  307.000;  546.000
921.663; 1082.150; -174.000; -257.000
921.903; 2146.575;  237.000;  173.000
922.143;10843.225;  372.000;  389.000
922.383;46186.950;  158.000;  115.000
922.622;22413.250; -120.000;  -15.000
922.862; 2296.025;  796.000;  785.000
923.102;  785.750;  -51.000;   33.000
923.341;  371.600;   59.000;   74.000
923.581;  178.000;  450.000;  360.000
923.821;   78.725;  301.000;  398.000
924.060;   28.825;  351.000;  193.000
924.300;  -24.475;  -16.000; -128.000
924.539;   21.750;  584.000;  473.000
924.779;   26.350;  812.000;  597.000
925.018;  -30.475;  247.000;  353.000
925.257;    5.175;  595.000;  666.000
925.497;  -36.725;  447.000;  412.000
925.736;  -58.600;  -35.000;  102.000
925.975;    2.475;  687.000;  669.000
926.214;   40.675;  907.000;  850.000
926.454;   23.950;  706.000;  757.000
926.693;  -17.425;  419.000;  543.000
926.932;   48.325; 1021.000;  825.000
927.171;   79.825; 1107.000; 1044.000
927.410;   68.100; 1144.000;  967.000
927.649;   21.125;  924.000;  742.000
927.888;    6.425;  590.000;  564.000
928.127;   12.275;  680.000;  678.000
928.366;   30.800;  842.000;  826.000
928.605;   51.325;  831.000;  737.000
928.844;  279.025; 1451.000; 1393.000
929.083;  849.750;  770.000;  613.000
929.321;  553.025; 1335.000; 1359.000
929.560;  111.200; 1158.000; 1122.000
929.799;  -12.925;  574.000;  475.000
930.038;   89.150; 1025.000; 1394.000
930.276;  -22.000;  334.000;  397.000
930.515;    1.950;  827.000;  681.000
930.753;   -1.425;  614.000;  589.000
930.992;   -1.600;  664.000;  717.000
931.230;   15.350;  847.000;  847.000
931.469;  160.775; 2162.000;  892.000
931.707;   70.850;  840.000;  751.000
931.946;   64.625; 1278.000; 1344.000
932.184;   54.100; 1437.000; 1175.000
932.423;   59.650; 1265.000;  963.000
932.661;   98.975; 1296.000; 1428.000
932.899;   55.625;  987.000;  821.000
933.137;   48.400;  754.000;  564.000
933.376;  183.250; 1664.000; 1335.000
933.614;  197.125; 1759.000; 1196.000
933.852;   80.725; 1357.000; 1171.000
934.090;  157.700; 1722.000; 1747.000
934.328;  133.275; 1252.000; 1457.000
934.566;  151.050; 1431.000; 1110.000
934.804;  214.400; 1263.000; 1309.000
935.042;  682.825; 1861.000; 1850.000
935.280; 2811.800; 2088.000; 2063.000
935.518; 3502.750; 2113.000; 2007.000
935.756;  697.900; 2481.000; 2316.000
935.994;  237.275; 1808.000; 1751.000
936.231;  388.125; 2890.000; 2950.000
936.469;  227.550; 2367.000; 2378.000
936.707;  174.375; 2220.000; 2167.000
936.945;  236.900; 2825.000; 2882.000
937.182;  212.900; 2679.000; 2741.000
937.420;  312.675; 3602.000; 3031.000
937.657;  444.425; 3365.000; 3478.000
937.895;  404.500; 3331.000; 3488.000
938.133;  312.150; 3540.000; 3528.000
938.370;  336.900; 3896.000; 4191.000
938.607;  385.300; 4488.000; 4205.000
938.845;  526.100; 5587.000; 5549.000
939.082;  468.550; 5387.000; 5177.000
939.320;  551.450; 5799.000; 5728.000
939.557;  646.925; 6549.000; 6491.000
939.794;  730.975; 7285.000; 7097.000
940.031;  912.475; 8421.000; 8368.000
940.269; 1173.450; 9552.000; 9107.000
940.506; 1138.375;10901.000;10507.000

