
Integration time [ms]: 100.000
Averaging Nr. [scans]: 40
Smoothing Nr. [pixels]: 0
Data measured with spectrometer [name]: 2101013U2
Wave   ;Sample   ;Dark     ;Reference
[nm]   ;[counts] ;[counts] ;[counts] 

394.013;   52.029; -450.257; -315.536
394.305;  172.427; -461.258; -419.536
394.596; 1593.753; -676.269; -527.514
394.887; 4182.798; -796.268; -654.518
395.178; 1522.585;  145.736;   11.476
395.470;   73.298; -210.263; -356.526
395.761;  142.241;  305.734;  394.479
396.052;  137.277; -545.284; -306.489
396.343;  108.786; -557.276; -454.503
396.634;   29.748; -200.279; -290.497
396.926;   13.669; -618.268; -565.517
397.217;   52.341;   11.725;  -17.504
397.508;   23.660; -366.273; -154.507
397.799;   24.473; -555.279; -571.497
398.090;   -2.809; -973.280; -902.495
398.381;   78.286;   11.708;  -11.473
398.672;  -24.863; -585.292; -742.473
398.963;   26.330; -348.279; -373.498
399.254;   79.723;   54.709; -209.475
399.545;  -27.913;-1017.266; -883.520
399.836;   55.023; -407.277; -343.501
400.127;   39.857; -205.295; -209.468
400.418;   34.029; -423.274; -392.506
400.709;   16.576; -359.281; -333.493
401.000;   43.378; -268.291; -309.476
401.290;   86.831;  225.698;  115.545
401.581;   73.631; -166.286; -228.485
401.872;    6.674; -542.298; -486.462
402.163;   58.473; -313.296; -252.467
402.454;   84.524; -123.291; -163.475
402.744;   46.613; -844.297; -813.465
403.035;  250.950; -226.293;  -86.471
403.326;  343.116; -366.292; -384.474
403.617;  314.242;  204.701;  165.539
403.907;  335.683; -593.283; -679.490
404.198; 3567.825; -545.307; -599.446
404.489; 9126.939; -618.283; -588.491
404.779; 2575.885; -618.302; -660.456
405.070;  277.259;  -67.304; -174.451
405.360;  478.328; -259.293; -238.472
405.651;  470.923;  125.699;   98.542
405.942;  166.600;  209.714;  127.516
406.232;  101.442; -432.285; -413.487
406.523;  243.269;  641.706;  758.530
406.813;   50.278; -579.286; -644.484
407.104;  200.810;  261.708;  144.527
407.394;   80.143; -604.299; -591.462
407.685;  135.691;  336.715;  222.513
407.975;   48.338; -400.283; -382.490
408.265;  101.866; -134.289; -190.478
408.556;   73.670; -472.291; -459.475
408.846;  165.245;  474.706;  429.530
409.137;   90.152;   -1.288; -216.480
409.427;   55.892; -193.285; -271.487
409.717;   48.089; -776.273; -692.508
410.007;  123.884;    4.715; -170.486
410.298;  107.185; -360.295; -342.469
410.588;   86.014; -495.285; -510.486
410.878;   40.565; -792.287; -873.482
411.168;  114.702; -481.298; -478.463
411.459;  131.931; -295.283; -242.489
411.749;   74.769; -609.292; -507.474
412.039;   76.350; -755.289; -386.480
412.329;  204.764;   40.722;  132.501
412.619;  226.428;  -62.286; -148.485
412.909;  367.370;  639.711;  594.521
413.199;  321.691; -130.280; -251.495
413.490;  390.783;  521.710;  352.523
413.780;  198.796;-1013.279; -913.496
414.070;  389.237;  -46.276;  235.497
414.360;  393.959; -729.278; -666.498
414.650;  530.735; -726.288; -688.482
414.940;  736.471; -538.280; -441.496
415.230; 1237.282;   50.712;   74.519
415.520; 8588.952;  155.730;   66.486
415.809;34690.825; -305.281; -125.493
416.099;26205.275; -388.277; -229.501
416.389; 7786.001;  435.726;  236.494
416.679; 4489.702;   91.738;   85.473
416.969;  769.370; -527.287; -503.483
417.259;  646.923;  341.721;  171.503
417.549;  866.924;  522.718;  318.508
417.838; 2400.197; -205.268; -147.518
418.128; 8276.040;  650.710;  492.522
418.418; 6733.847; -491.272; -579.509
418.708; 4510.876;    9.726;  -48.506
418.997;17696.421; -474.275; -480.505
419.287;18101.834; -733.273; -790.507
419.577;17605.030; -160.283; -123.489
419.866;56563.923; -588.277; -498.501
420.156;55068.447; -242.270;  -55.513
420.446; 9161.418; -112.263;  -26.526
420.735;  912.164; -376.271; -446.512
421.025;  919.033; 1830.722;  315.502
421.314;  567.937; -203.271; -226.512
421.604;  776.888;   89.732;  233.484
421.893;  471.233; -705.271; -602.511
422.183;  279.194; -487.263; -461.526
422.472;  389.235;  -36.271; -107.511
422.762;  418.094; -416.266; -379.521
423.051;  273.538; -916.276; -916.503
423.341;  333.062; -491.273; -439.507
423.630;  415.101; -121.265;   15.477
423.919;  428.470;   58.725;   49.495
424.209;  481.675;  -31.263;   56.473
424.498;  625.594;   68.732;  161.483
424.787; 1483.777; -535.267; -601.518
425.077; 4367.999;   34.735;   29.478
425.366; 4879.682; -734.262; -744.528
425.655;13491.212;  639.727;  259.493
425.945;34452.663; -313.247; -268.554
426.234;18243.834;  117.741;  300.467
426.523; 7378.215;  -86.259; -350.534
426.812; 9974.814;  107.734;  159.480
427.101;14967.709; -127.269; -323.515
427.390;17608.126;  -55.270;  -86.514
427.680; 2657.364; -624.257; -411.538
427.969;  515.552; -330.255; -301.540
428.258;  365.729; -385.257; -477.536
428.547;  508.302;  449.728;  397.490
428.836;  817.072; -421.253; -398.543
429.125; 1124.568; -199.259;  -72.534
429.414;  817.349; -330.251; -294.548
429.703; 4513.399; -231.251; -213.548
429.992;14079.928; -938.250; -828.549
430.281; 8919.685; -397.264; -331.524
430.570;  632.013;  -21.252;   32.454
430.859;  428.140;  279.741;  352.466
431.148;  416.182;  636.752;  631.446
431.437;  302.737;  391.748;  367.454
431.725;  195.531; -544.257; -481.536
432.014;  212.781; -845.253; -756.545
432.303;  419.174; -149.239; -105.569
432.592;  560.093; -460.263; -178.525
432.881; 1426.209; -601.248; -437.554
433.169; 9521.803; -343.255;  -61.540
433.458;19414.965;  445.765;  540.424
433.747; 7566.464; -397.261; -289.529
434.036;  976.370; -275.242; -280.564
434.324; 2935.968; -395.249; -379.551
434.613; 5269.437;   40.757;  159.437
434.902; 1497.512;  333.760;  439.433
435.190;  318.547;   75.761;  295.431
435.479;  175.215;  -52.245;   83.441
435.767;  103.325; -411.244; -427.561
436.056;  184.340; -340.242; -294.563
436.345;  480.665; -372.240; -223.568
436.633;  430.338;   60.750;  383.450
436.922;  201.967;  208.760;  414.432
437.210;  240.202; -194.236;    1.426
437.499;  615.812; -583.235; -432.576
437.787;  712.777; -339.236;  -10.574
438.075;  208.829;   56.761;  162.430
438.364;  220.932;  -44.238;  250.429
438.652;  125.533; -286.226; -138.592
438.941;   58.340;    3.770;  269.415
439.229;  -24.016; -665.252; -466.545
439.517;   34.372; -160.234;  -85.577
439.806;    0.577; -501.225; -290.595
440.094;  144.382;  377.766;  650.421
440.382;   56.036; -653.233; -302.580
440.670;   44.162; -361.235; -285.576
440.959;  -10.102; -347.223; -170.599
441.247;   34.404; -151.229; -109.587
441.535;   50.820; -266.235;   31.423
441.823;   -1.822; -497.234; -305.578
442.111;  163.659;  173.771;  327.412
442.400;  325.989; -628.245; -335.559
442.688;  589.106; -111.234; -620.579
442.976;  311.629; -786.213; -450.617
443.264;   36.160; -324.224; -364.597
443.552;   55.910; -258.226;   51.408
443.840;  134.819;  602.765;  876.423
444.128;   74.810;  265.767;  269.420
444.416;   -6.238; -694.228; -312.588
444.704;   17.284; -465.219;  -92.605
444.992;   52.488;   -0.226;  240.407
445.280;    7.741; -517.230;  -94.585
445.568;   -9.567; -694.212; -396.618
445.856;  162.640; -174.221;  357.398
446.143;  303.179;  -54.220;   -7.604
446.431;  269.091;  -25.228;  625.411
446.719;  164.782;  489.783;  675.391
447.007;  149.459;  481.769;  705.416
447.295;  177.970;  597.777;  871.402
447.583;   82.351; -464.229;  -34.587
447.870;  114.236; -434.221; -202.601
448.158;  248.414; -104.230;  129.415
448.446;  160.456; -800.219; -338.604
448.733;  143.762;   13.776;  269.403
449.021;  202.158;   60.788;  341.382
449.309;  157.976; -296.210;  208.379
449.596;  217.378;  128.783;   59.392
449.884;  191.928; -571.222; -325.600
450.172;  279.098; -756.227; -406.590
450.459;  627.684;  645.786;  780.387
450.747; 3748.801; -411.218; -147.608
451.034;12171.493;  493.772;  889.411
451.322; 9773.762; -413.214; -170.614
451.609;  722.589;  292.777;  508.403
451.897;  893.402; -550.203; -183.634
452.184; 2727.245; -622.223; -400.598
452.472; 2450.102;   97.792;  269.375
452.759;  335.006;  512.781;  864.395
453.047;   83.030; -407.212; -125.617
453.334;   40.941; -732.219; -216.606
453.621;   24.390; -438.214; -161.615
453.909;   90.292;   13.796;  384.368
454.196;   96.447; -299.199; -123.641
454.483;  225.242;  317.798;  540.364
454.771;  136.630; -215.208;  196.374
455.058;   44.659; -316.207;  102.374
455.345;  146.138;   71.807;  344.347
455.632;  109.438; -128.207;  235.373
455.919;   58.099;  -82.196;  182.354
456.207;  -54.323; -774.198; -450.642
456.494;   -1.293; -475.200;  -66.639
456.781;   17.137; -399.202; -198.635
457.068;   61.421; -253.206;  -29.628
457.355;  -22.678; -698.206; -401.629
457.642;   11.729; -552.205; -290.630
457.929;   24.402; -778.194; -417.651
458.216;  121.480; -575.212; -354.617
458.503;  386.833; -173.193;  -19.652
458.790;  407.178; -864.208; -630.625
459.077;  363.493;  -77.202;  110.364
459.364; 1211.494; -350.195; -210.649
459.651; 2549.269;  -46.206;  220.372
459.938; 1119.491; -864.209; -665.623
460.225;  118.497;  132.799;  276.363
460.512;  -36.104; -836.197; -688.645
460.799;  108.774;  -32.218;  320.392
461.086;   90.687; -370.200; -251.640
461.372;   13.003; -509.198; -279.642
461.659;   66.450; -165.196;  108.354
461.946;   31.556; -445.193;  -54.651
462.233;  218.335;  842.800;  888.361
462.519;  472.331; -814.201; -464.639
462.806; 1511.396; -768.197; -497.645
463.093; 1317.231; -445.191;  -66.656
463.380;    3.781; -920.186; -824.664
463.666;   54.598; -259.197;  -18.646
463.953;  138.788; -406.195; -243.648
464.239;  265.338; -173.195;  -77.648
464.526;  401.051;  413.806;  743.350
464.813;  330.620; -565.190; -304.658
465.099;  331.058;  606.807;  607.348
465.386;  272.112;  903.807;  921.348
465.672;    5.871; -694.197; -522.645
465.959;   33.792; -598.188; -520.662
466.245;   -5.338; -468.193; -359.652
466.532;   45.310; -109.195;   63.352
466.818;   39.831; -357.186; -216.664
467.104;  -24.396; -488.182; -415.672
467.391;  -24.602; -628.189; -459.658
467.677;   20.360; -289.186;    9.335
467.964;   -3.870; -682.189; -471.660
468.250;   34.588; -331.186; -160.665
468.536;   69.174;   90.811;  180.341
468.822;  -29.522; -821.184; -574.668
469.109;  147.826;  351.827;  471.311
469.395;  187.924;  729.808;  787.346
469.681;  221.878;   46.811;  156.341
469.967; 1802.558; -699.188; -382.660
470.254; 4043.293; -494.188; -306.662
470.540; 2500.374; -601.196; -476.646
470.826;  356.042; -488.181; -397.675
471.112;  401.232;  288.816;  113.331
471.398;  108.987; -253.183;  -58.670
471.684;   36.626; -626.177; -447.680
471.970;   36.347; -918.180; -981.675
472.256;   46.398; -521.192; -441.654
472.542;   14.214; -499.171; -434.691
472.828;   14.449; -743.182; -607.672
473.114;   20.342; -380.166; -283.700
473.400;   10.671; -504.175; -293.684
473.686;   41.500; -452.166; -400.701
473.972;   44.589; -230.174; -131.687
474.258;   -4.649; -925.173; -843.689
474.544;  303.767; -183.178;   -2.679
474.830;  476.473;  -65.175;   45.316
475.116;  791.847; -123.190; -196.658
475.401; 1045.375; -558.180; -467.676
475.687;  275.624; -725.180; -718.676
475.973;   -2.941; -673.181; -770.673
476.259;  220.701;  736.825;  764.315
476.544;  538.386; -539.176; -437.682
476.830; 1322.660; -398.172; -322.690
477.116; 1186.010; -430.177; -336.682
477.401;  145.099;  346.820;  358.324
477.687;  -17.153; -289.175; -405.684
477.973;   46.488;   21.819;   28.326
478.258;   -5.676; -448.163; -348.706
478.544;   30.695;   21.815;   61.334
478.829;  -53.254; -818.171; -738.692
479.115;  -51.841; -749.172; -651.690
479.401;  -11.341; -444.174; -449.686
479.686;   46.698; -253.180;  -74.676
479.972;    6.123; -886.178; -776.680
480.257;   25.219; -258.166;  -65.700
480.542;   26.876; -614.170; -469.693
480.828;  234.244; 1288.824; 1392.317
481.113;  -26.633; -464.176; -426.683
481.399;  -22.372; -236.161; -202.711
481.684;  -36.007; -620.166; -462.700
481.969;   17.369; -158.159;  -73.713
482.255;  -14.686; -439.169; -285.695
482.540;   -1.002; -569.178; -441.680
482.825;   19.475; -395.187; -404.663
483.110;  136.218;  -85.169; -105.696
483.396;  358.495; -840.157; -652.718
483.681;  732.064;  543.826;  730.313
483.966;  292.962; -696.160; -700.712
484.251;  -11.562; -404.174; -310.687
484.536;    7.881; -356.165; -378.703
484.822;   25.617; -205.173; -218.687
485.107;  -16.184; -599.152; -502.726
485.392;  120.938;  662.836;  541.296
485.677;   77.254;  354.832;  163.302
485.962;  108.342;  160.843;  270.283
486.247;  100.734;  -14.162;   -8.707
486.532;   65.420; -178.166; -325.701
486.817;  175.896;  381.839;  431.291
487.102;  152.070; -453.154; -514.722
487.387; 1070.922; -637.156; -652.718
487.672; 1906.319; -154.164;  -38.705
487.957; 1165.630; -394.160; -286.711
488.241;  318.886; -290.150; -314.729
488.526; 1146.943; -280.152; -148.726
488.811; 1917.450; -881.177; -818.680
489.096; 1359.299; -666.154; -702.723
489.381;  703.388;    3.847;  162.275
489.666;  630.602; -428.161; -510.710
489.950;  212.927;  558.846;  627.277
490.235;  -34.670; -480.151; -458.728
490.520;  -43.824; -756.161; -723.710
490.804;  -35.450; -827.156; -736.719
491.089;   20.730; -469.149; -299.732
491.374;   40.742; -132.164;  -75.704
491.658;  -14.256; -817.147; -717.735
491.943;  136.298; -657.152; -609.727
492.227;  216.190; -178.155;  -38.721
492.512;   45.491; -294.157; -341.717
492.797;  -68.727; -713.149; -716.731
493.081;  -39.078; -588.147; -598.735
493.366;  -33.247; -751.161; -635.711
493.650;  209.986;  831.859;  917.254
493.935;   65.143; -648.147; -447.734
494.219;  -16.504; -778.142; -687.743
494.503;  -32.533; -585.150; -487.730
494.788;   58.156;   46.842;   74.285
495.072;  112.212;  184.850;  434.271
495.356;  226.159; -463.148; -343.733
495.641;  532.455; -812.146; -736.736
495.925;  459.855; -976.156; -903.719
496.209;    9.504; -599.149; -451.732
496.494;  -31.704; -763.142; -544.744
496.778;    9.895; -364.154; -360.722
497.062;  -30.220; -819.156; -627.719
497.346;   -8.218; -869.160; -640.711
497.631;  169.163;  580.852;  560.266
497.915;   61.918;  -64.145;  175.261
498.199;   39.920; -341.157; -277.718
498.483;   38.890; -562.152; -508.725
498.767;  262.689;  301.850;  300.271
499.051;  265.276; -126.149; -100.732
499.335;   68.499; -693.149; -739.731
499.619;  -43.017; -381.129; -423.767
499.903;   36.664; -272.155;  -65.721
500.187;   11.604; -588.153; -316.724
500.471;   26.322; -796.152; -595.727
500.755;   95.277;   62.839;  -96.710
501.039;    5.414; -270.155; -357.721
501.323;   75.363;  -21.141;  264.254
501.607;   29.975; -447.163; -503.706
501.891;   -1.428; -607.156; -512.718
502.174;  -37.144; -726.144; -585.741
502.458;   63.752;   89.849;  370.273
502.742;   49.967; -180.138; -191.751
503.026;  180.967; -412.147; -254.734
503.310;  326.793; -437.159; -375.713
503.593;  191.370; -464.147; -325.735
503.877;  140.315; -232.133; -156.760
504.161;  180.907;    2.847;  -50.724
504.444;  189.509; -841.158; -710.716
504.728;  753.641; -487.164; -522.704
505.012; 1094.560; -257.150;  -76.729
505.295;  809.678; -417.161; -212.711
505.579;  825.605; -256.156; -496.719
505.862; 1226.888; -555.145; -333.738
506.146; 1219.646; -681.159; -758.714
506.429;  560.521;  568.841;  461.286
506.713;  136.607; -732.151; -667.728
506.996;  484.195;   90.846;  295.278
507.280;  556.310; -633.165; -474.703
507.563;  376.287; -469.155; -261.721
507.847;  188.230; -423.153; -112.724
508.130;  161.679; -665.161; -456.711
508.413;  227.788; -758.167; -577.700
508.697;  398.689; -151.167;   12.300
508.980;  276.507; -422.153; -312.724
509.263;   22.108; -466.155; -450.720
509.547;   55.560; -124.150;   82.271
509.830;   61.256; -172.160;  140.289
510.113;  100.379;  128.844;  298.281
510.396;   50.189; -530.152; -300.725
510.680;   58.140; -818.145; -812.738
510.963;  224.725;  184.846;  180.277
511.246;  160.819; -493.150; -357.730
511.529;  290.821; -482.145;  -83.739
511.812;  616.836; -250.134;   10.241
512.095;  483.328; -740.151; -396.728
512.378;   94.624; -317.147; -245.736
512.661;   79.951; -703.137; -623.753
512.944;   96.948; -750.142; -637.744
513.227;  105.948; -170.137; -171.752
513.510;   61.406; -479.144; -671.741
513.793;   42.943; -485.140; -435.747
514.076;  155.258;  -43.127;  -39.771
514.359;  162.255; -294.149; -135.732
514.642;  130.952; -442.142; -567.744
514.925; 1108.016;  581.860;  561.253
515.208; 1632.457; -498.134; -443.758
515.491;  985.498; -276.133; -182.761
515.773;  561.660; -410.143; -337.742
516.056; 3209.034;  249.864;  409.246
516.339; 4243.863; -754.136; -652.755
516.622; 2013.866; -518.150; -488.730
516.904;  615.044;  882.857;  975.257
517.187;  228.971; -730.138; -523.752
517.470;  438.518; -568.143; -510.743
517.752;  707.792; -624.136; -470.756
518.035;  580.506; -708.139; -725.749
518.318;  605.439; -799.136; -744.755
518.600; 3942.703; -300.132; -325.762
518.883; 5382.001;  310.858;   88.256
519.165; 2461.037; -585.138; -426.751
519.448;  416.677;  -61.132;  -19.762
519.730;  219.017; -573.126; -415.773
520.013;  226.719;  588.867;  664.240
520.295;  345.363;  -94.134;  -15.759
520.578;  755.518; -335.131; -305.764
520.860;  994.303; -254.132;   56.238
521.143;  677.919; -763.135; -584.756
521.425;  587.257; -251.125; -279.775
521.707;  979.608; -622.127; -380.771
521.990; 2736.759; -199.127;  167.229
522.272; 3192.670; -116.140;   -4.748
522.554; 1192.261; -237.143; -157.742
522.836;  249.661;  -24.134;   99.241
523.119;  188.141; -496.148; -189.734
523.401;  175.051; -448.130; -314.766
523.683;  174.002; -865.137; -693.753
523.965;  404.969;  408.862;  260.248
524.247;  427.883;   54.878;  170.220
524.529;  300.488; -451.134; -367.759
524.812;  476.479;   -3.130;  191.234
525.094; 1366.168; -773.138; -631.751
525.376; 2153.743; -143.124;   78.223
525.658; 1307.535; -441.136; -339.754
525.940;   89.439; -805.131; -671.764
526.222;   15.639; -188.136;  -88.755
526.504;   64.436; -190.131;   32.237
526.786;   41.291; -960.133; -647.760
527.068;  126.550; -124.123;  -67.778
527.349;    2.331; -865.137; -774.754
527.631;  134.752; -137.132;   22.238
527.913;  206.257; -664.127; -450.771
528.195;  302.499; -761.125; -639.774
528.477;  377.007;  -93.134;  -30.758
528.759;  281.028; -648.130; -522.766
529.040;  125.923; -569.123; -293.778
529.322;   76.652; -235.125;  -10.774
529.604;   90.331;  -47.130;   93.233
529.886;   71.416; -546.126; -302.773
530.167;   79.996;  232.870;  192.235
530.449;   49.174;    1.853;   63.265
530.731;   78.757; -572.122; -459.779
531.012;  147.782; -513.120; -216.784
531.294;  118.579; -118.116;  -43.792
531.575;  201.357;  290.875;  538.225
531.857;  131.201; -548.135; -266.757
532.138;  116.336; -113.141;   40.254
532.420;  131.096;  294.865;  403.244
532.701;   99.219; -722.133; -751.760
532.983;  193.723;  232.867;  182.239
533.264;   75.164; -243.126;  175.228
533.546;  -44.936; -491.136; -508.755
533.827;   36.165;  173.867;   -1.759
534.109;   26.226; -352.135;  -80.757
534.390;   93.632; -725.132; -582.762
534.671;  300.696; -270.135;  -82.756
534.953;  208.477; -751.123; -611.779
535.234;   45.961; -426.117; -255.789
535.515;  -55.833; -891.119; -735.785
535.796;   11.603; -431.128; -193.770
536.078;  -96.407;-1050.124; -904.777
536.359;   -0.797;  -22.123;    3.221
536.640;  -11.774; -480.125; -197.774
536.921;  176.637;  225.871;  143.232
537.202;  540.889;  -87.138;  -16.751
537.483;  665.692;  251.869;  377.236
537.764;  270.771;   17.870;   98.235
538.045;  -26.444; -543.134; -371.758
538.326;  -11.760; -596.129; -447.768
538.607;   69.059; -686.127; -476.771
538.888;  264.696;   98.879;    5.218
539.169;  303.415; -704.122; -535.781
539.450;  401.436;  236.871;   16.233
539.731;  254.401; -361.121; -182.783
540.012;  154.507;  199.880;  412.216
540.293;   84.236;   82.876;  158.224
540.574;    6.154; -895.113; -717.796
540.855;  504.124;  435.879;  377.218
541.136;  680.761;   47.878;  139.220
541.416;  379.354; -161.130; -220.766
541.697;  309.337; -274.131; -170.763
541.978; 1639.399; -270.135; -315.757
542.259; 2065.584; -211.127; -236.771
542.539;  955.846; -191.116; -186.790
542.820;  223.657;  461.875;  480.225
543.101;  143.917;  -52.145;  -77.738
543.381;   47.784; -638.127; -591.771
543.662;  350.731;  159.873; -254.771
543.942;  979.579; -751.127; -830.770
544.223; 1648.988;  193.878;  161.219
544.504; 1088.743; -275.124; -182.777
544.784;  886.016; -592.126; -408.773
545.065; 2524.651;  104.884; -254.791
545.345; 2932.542;  227.881;   14.215
545.626; 1951.728;  -14.113; -108.796
545.906; 1377.220;   77.869;   98.235
546.186;  591.722;   92.874;  -95.773
546.467;  301.946;   99.877;  -95.778
546.747;  492.971;  264.884;  327.210
547.027;  557.366;   91.876;  111.223
547.308;  555.228; -376.127; -530.770
547.588;  590.865;  299.871;  371.232
547.868;  249.372;  458.870;  588.235
548.149;  242.210;  609.885;  593.207
548.429;  251.532; -347.127; -299.771
548.709;  358.381; -645.120; -461.784
548.989;  746.729;   84.882;   88.213
549.269; 3274.376;   10.868;  139.239
549.550; 7673.376;  215.877;  117.222
549.830; 6844.574; -758.111; -556.799
550.110; 1333.633; -468.110; -320.801
550.390; 1304.007; -128.122;  -56.779
550.670; 1915.648; -868.114; -783.795
550.950; 1301.099; -509.121; -471.782
551.230;  266.644;  549.879;  460.218
551.510;   22.072; -381.121; -326.782
551.790;   72.093; -173.109; -127.803
552.070;  320.871;  940.877; 1181.223
552.350;  698.572; -492.119; -377.786
552.630;  937.341;   -2.121;   77.219
552.909;  548.752;  181.884;   73.209
553.189;  394.383;  -49.132;   33.237
553.469;  373.546; -703.119; -514.786
553.749;  356.636; -469.127; -357.772
554.029;  294.016;   33.883;  -24.790
554.308;  263.140; -154.115;  -37.794
554.588;  140.376; -196.128; -204.770
554.868;  131.724; -366.121;  -47.782
555.147;  253.111; -114.115;  -46.793
555.427;  928.479; -260.116; -250.792
555.707; 6169.784; -284.115; -200.793
555.986; 7570.603; -719.111; -538.800
556.266; 3877.520;   23.884;   72.210
556.546;  240.097; -888.121; -675.782
556.825;  428.770; -657.114; -556.794
557.105; 2831.324; -125.128;   17.230
557.384; 3361.975;  122.884;  187.209
557.664; 1299.079; -717.116; -508.792
557.943;  237.874; -557.121; -411.782
558.222;  301.457; -345.118; -344.788
558.502;  415.538; -116.115;  -76.793
558.781;  716.508;  194.885;  499.208
559.061;  650.982; -232.118; -227.788
559.340;  455.663;  302.883;  353.211
559.619; 1156.870;   93.884;  148.210
559.899; 1679.715; -239.117; -266.789
560.178; 1546.888; -778.115; -593.793
560.457; 4757.967; -623.117; -562.790
560.736; 6818.755; -472.111; -482.800
561.015; 4450.296; -500.128; -502.769
561.295;  534.767;  180.893;  215.193
561.574;  437.510;  119.885;  116.207
561.853;  695.023;  274.891;  303.197
562.132;  790.791;  -45.114;  182.206
562.411;  664.892;  396.879;  553.219
562.690;  261.257; -592.115; -458.792
562.969;  189.686;  472.888;  630.203
563.248;  570.689; 2966.878; 2487.219
563.527;  472.879; -290.111; -408.800
563.806;  656.982; -650.127; -521.771
564.085;  683.435; -297.105; -206.810
564.364;  439.519; -594.117; -405.790
564.643;  810.692; -276.121; -223.781
564.922; 2971.516;  221.890;  397.198
565.201; 3063.545; -640.109; -700.803
565.479; 1283.881; -297.115; -219.792
565.758;  578.149; -810.128; -712.770
566.037;  761.271; -155.109; -100.803
566.316;  382.401; -286.116;  -28.791
566.595;   69.134;  -17.115;  -12.793
566.873;  112.831; -166.111;  -79.801
567.152;  -42.739; -490.113; -590.797
567.431;   46.146; -113.116;    6.210
567.709;   47.517; -344.107; -212.807
567.988;  484.695; -810.114; -769.794
568.266;  869.034; -160.115;  -68.793
568.545;  631.466; -644.100; -514.819
568.824;  916.580;  160.885;  356.208
569.102;  985.694; -351.114; -235.794
569.381;  408.479; -492.116; -407.792
569.659;  -13.494; -553.113; -553.796
569.938;  119.262; -743.122; -465.780
570.216;  200.800; -225.109; -225.804
570.494;   24.248; -632.114; -572.795
570.773;   46.247;  202.879;  114.218
571.051;   50.724; -373.123; -357.778
571.330;  119.829; -221.113; -174.796
571.608;   86.888; -181.098; -173.823
571.886;  -24.978; -671.111; -581.799
572.164;  -31.851; -739.121; -621.782
572.443;    7.989; -562.105; -512.811
572.721;  -22.183; -399.117; -289.790
572.999;    0.260; -280.117; -168.788
573.277;  122.107;  379.894;  620.191
573.555;  449.784;   94.894;   37.190
573.834; 2181.859;  -86.117; -114.788
574.112; 2488.545;  880.893;  811.193
574.390;  745.005; -143.111;  -96.801
574.668;   36.412;  -91.112;  -61.797
574.946;  -10.166; -165.106; -187.810
575.224;   34.770;   71.891;  -16.803
575.502;   -5.552; -200.116; -204.791
575.780;  -44.012; -767.112; -829.798
576.058;  221.379; 1589.889; 1004.200
576.336;   -8.839; -210.110; -129.801
576.614;  -44.186; -511.112; -340.798
576.891;  141.289; -711.115; -823.794
577.169;  797.334; -158.108; -285.805
577.447;  900.969;  169.893;  202.193
577.725;  360.069;  629.888;  854.201
578.003;   39.117;  -71.112; -371.798
578.280;  139.500; -208.104; -242.812
578.558;   96.888; -450.115; -422.793
578.836;  157.898; -210.114; -145.795
579.114;   81.562; -630.112; -670.797
579.391;   75.986;   -6.117;  -18.789
579.669;  -40.485; -595.114; -704.794
579.947;  279.015; -326.107; -127.806
580.224;  584.590; -692.107; -524.806
580.502;  502.645;  127.893;   76.193
580.779;   57.893;  -42.117;   75.210
581.057;  -68.075; -584.109; -470.804
581.334;  -78.007; -726.102; -695.815
581.612;   32.410;   54.895;  511.190
581.889;  -18.016;  -83.101; -129.818
582.167;  -31.624; -298.099; -190.821
582.444;  -79.898; -845.102; -814.817
582.721;  102.403;  657.899;  715.183
582.999;  106.123; -326.100; -167.821
583.276;  901.354; -812.123; -713.779
583.553; 1206.497; -364.102; -294.816
583.831;  425.496; -607.104; -631.812
584.108;   85.107;  349.892;  174.195
584.385;   36.517; -122.102;  -98.815
584.662;  -32.643; -651.111; -828.801
584.940;   45.331;  204.889;  204.199
585.217;   -7.219;  -73.113; -303.796
585.494;   54.517;   71.890;  118.198
585.771;  330.001; -250.109; -354.804
586.048;  800.056; -196.113;  -76.796
586.325;  525.260; -721.110; -773.801
586.602;  130.801;  230.896;  213.188
586.879;   44.794; -499.100; -580.820
587.156;  114.286; -156.105; -331.810
587.433;    4.500; -701.102; -667.817
587.710;   97.114;  152.888;  234.202
587.987;  470.693; -264.105; -236.811
588.264; 1183.416;  315.888;  387.202
588.541; 1953.079;  -61.104;   26.187
588.818; 3998.679;   72.892;  171.196
589.095; 3437.723; -163.104; -174.812
589.371;  563.123; -459.109; -414.804
589.648;   68.245; -581.107; -437.807
589.925;  100.674; -517.114; -621.795
590.202;   87.039; -741.112; -607.798
590.478;  162.620; -166.105;  -73.811
590.755;  409.661; -241.108; -132.806
591.032; 3830.088; -741.110; -699.802
591.308; 5456.211; -732.094; -790.831
591.585; 2748.587; -573.110; -560.802
591.862;  322.052;-1056.102; -950.817
592.138;  138.683; -475.108; -474.805
592.415;  258.527; -486.104; -495.813
592.691; 2166.099;  460.896;  518.188
592.968; 2911.690; -208.098; -123.824
593.244; 1379.696; -695.116; -595.790
593.521;  117.127; -105.102;  -42.817
593.797;   33.509; -810.122; -720.780
594.074;  535.705; -611.096; -588.826
594.350;  943.769;  828.905;  729.172
594.626;  465.732; -303.111; -283.801
594.903;  232.303; -643.101; -645.817
595.179;  286.456;  243.896;  418.187
595.455;   28.471; -136.107; -150.807
595.731;   18.433;  -19.103;  -38.814
596.008;  -25.975; -464.111; -434.800
596.284;   81.322; -187.100; -242.820
596.560;  137.269; -501.093; -493.833
596.836;  329.739; -173.105;  -70.810
597.112;  594.934; -582.108; -437.805
597.388;  472.428;  -49.097;  -48.826
597.665;  146.959;  437.887;  530.203
597.941;  -20.346; -572.089; -658.839
598.217;   64.716; -323.110; -293.802
598.493;  418.053;   61.891; -204.804
598.769;  830.715; -175.100;  -50.819
599.045;  513.987; -490.108; -562.806
599.321;  114.595; -193.100; -261.820
599.597;  265.577; -355.109; -476.804
599.872;  736.078;  409.896;  429.187
600.148;  583.905;  -61.097; -172.826
600.424;  442.493;   91.893;  202.193
600.700;  411.746; -170.107; -280.807
600.976;  221.423; -442.097; -464.825
601.252;  419.998; -226.109; -272.803
601.527;  407.705; -833.104; -840.813
601.803;  271.070; -453.105; -404.812
602.079;  298.240; -124.100; -118.819
602.354;  926.731; -620.092; -531.835
602.630; 1296.681; -140.113; -482.796
602.906; 3457.209; -910.101; -863.818
603.181;10401.247; -627.119; -534.786
603.457; 8754.902;   98.903; -278.826
603.733; 1303.627; -605.120; -626.783
604.008; 1446.585; -245.106; -164.810
604.284; 4746.555; -636.101; -580.817
604.559; 4107.144;   -3.112;  -42.799
604.835;  744.363; -163.105; -225.810
605.110;  705.477; -732.099; -892.821
605.385; 1037.322;  224.907;  267.167
605.661; 1045.222; -625.095; -729.829
605.936; 1919.563; -664.108; -737.806
606.211; 1590.516;  -17.103; -170.815
606.487;  341.493; -329.114; -376.794
606.762;  107.672; -791.119; -745.786
607.037;   25.514; -501.105; -433.810
607.313;   -5.561; -589.096; -574.828
607.588;   20.259; -375.106; -137.810
607.863;   87.533;  -28.101; -143.818
608.138;  253.940;  513.890;  516.198
608.413;  119.281; -576.099; -592.822
608.688;   96.608; -203.108; -267.805
608.964;  348.728; -509.106; -218.809
609.239;  421.635; -107.105; -212.810
609.514;  388.070;  281.895;  240.188
609.789; 1079.625; -187.104; -716.812
610.064; 1377.263; -435.096; -609.827
610.339; 1399.698; -855.109; -799.804
610.614; 1920.846; -131.100; -315.820
610.889; 1020.770;  215.895;  107.188
611.163;  115.971; -407.104; -591.812
611.438;  160.969;   81.886; -167.794
611.713;   63.555; -467.101; -499.817
611.988;  120.207; -144.101; -328.818
612.263;   55.643; -771.102; -717.815
612.538;  301.780;  385.887;  251.204
612.812;  353.647; -832.100; -911.820
613.087;  238.888; -358.098; -338.823
613.362;  -12.054; -497.107; -557.807
613.637;   38.911;  261.897;  138.186
613.911;   22.181; -256.092; -345.835
614.186;  229.169; -249.107; -292.807
614.460; 1190.869; -842.081; -758.854
614.735; 1292.082;  -55.087;  -17.843
615.010;  278.295;   43.912;  -82.841
615.284;  353.483;  360.892;  246.195
615.559;  651.380; -792.092; -955.835
615.833;  436.479;  -76.099;  -87.822
616.108;   54.644; -225.090; -390.837
616.382;  195.509;  274.913;  402.156
616.656;  268.295; -241.090; -232.837
616.931;  789.455; -785.099; -700.822
617.205; 1698.555; -973.104; -979.813
617.480; 1557.055;  -91.125;    6.225
617.754;  301.902; -396.125; -128.774
618.028;   60.641; -369.129; -382.768
618.302;  111.781;   73.892;  -25.805
618.577;   -7.437; -371.103; -518.815
618.851;  -32.356; -399.109; -600.803
619.125;  -18.262; -335.134; -378.759
619.399;   -2.019; -244.104; -374.813
619.673;  -33.720; -330.115; -515.792
619.947;  -18.602; -333.114; -448.795
620.222;    5.658; -198.110; -204.801
620.496;   13.224;  -47.121;  -96.782
620.770;   43.864; -187.122;  -93.781
621.044;  300.436;  323.895;  346.190
621.318; 1147.928; -653.120; -614.783
621.592; 1074.500; -430.121; -409.783
621.866;  637.220; -476.112; -572.799
622.140;   68.173; -207.116; -356.791
622.413;  102.300;  138.889;  112.200
622.687;   -7.470; -746.101; -492.817
622.961;   35.506; -130.108; -143.805
623.235;  -29.124; -633.111; -661.800
623.509;  -78.630; -816.105; -848.811
623.783;   18.316;  -12.107;   48.193
624.056;    4.579; -254.120; -280.783
624.330;   84.687;   63.888;   -3.797
624.604;   92.894; -271.116; -355.790
624.877;  134.713;  180.890;   26.198
625.151;   99.317; -249.114; -238.794
625.425;  -26.092; -150.103; -283.814
625.698;  -48.560; -367.119; -374.785
625.972;  -61.234; -799.110; -765.802
626.245;   90.471;  685.884;  484.210
626.519;  -28.291; -426.120; -340.784
626.792;  -18.479; -192.107; -380.807
627.066;  -75.944; -485.122; -662.779
627.339;  -73.213; -736.110; -663.802
627.613;   46.232;  351.880;  148.216
627.886;   75.394;  187.891; -612.803
628.160;    2.702;  312.880; -161.783
628.433;  -91.167; -695.125; -703.775
628.706;  -56.741; -517.120; -615.784
628.979;   27.141;  296.876;  117.223
629.253;  -41.554; -785.119; -833.786
629.526;  609.989; -334.126; -253.772
629.799;  628.474; -641.123; -479.778
630.072;  306.493; -497.128; -516.769
630.346;    3.896;-1115.116;-1080.790
630.619;  734.997; -467.107; -545.808
630.892;  957.127;  709.889;  593.200
631.165;  465.455;  790.896;  679.187
631.438;  -12.634;-1092.112;-1055.798
631.711;   48.178;  453.877;  257.221
631.984;  -27.810; -523.117; -624.789
632.257;  -45.239; -636.117; -681.789
632.530;  -15.410; -412.119; -433.785
632.803;   34.164; -109.115;    7.207
633.076;  -43.880; -360.123; -422.777
633.349;   19.623;  173.872;  121.231
633.622;  -17.486; -187.119; -240.785
633.895; -106.971; -903.120; -823.783
634.167;  -51.483; -496.126; -525.773
634.440;   -2.921;  -19.116; -137.792
634.713;    6.894;  -22.119; -120.786
634.986;   72.811;  593.871;  453.233
635.258;  -43.688; -507.115; -597.793
635.531;   96.156;  742.882; -343.788
635.804;  -25.436; -303.117; -318.789
636.077;  -85.276; -830.116; -852.791
636.349;   47.360; -586.115; -474.793
636.622;  453.864; 1695.874; 1392.228
636.894;  427.409; -474.120; -909.784
637.167;  310.031; -836.127; -789.771
637.439;   74.202; -278.128; -213.770
637.712;  -48.109; -312.126; -293.772
637.984;  -57.775; -635.116; -707.791
638.257;  507.046;  515.877;  488.222
638.529;  917.634; -881.125; -924.776
638.802;  409.443; -508.128; -449.769
639.074;  -81.787; -927.122; -952.781
639.346; -111.997; -942.135; -930.757
639.619;   13.075;  -79.142; -319.744
639.891;    4.881;  -83.122; -168.779
640.163;  -69.692; -689.122; -756.780
640.435;   49.185;  273.878;  103.220
640.708;   15.137;  -72.122; -132.780
640.980;   -3.061; -366.122; -362.781
641.252;  265.917;  -25.121;  -71.781
641.524; 2458.719;  580.879;  573.219
641.796; 2683.471;-1094.121; -907.782
642.068;  490.798; -191.121; -300.782
642.340;  -38.075; -486.121; -566.783
642.613;   53.128;  294.880;  323.217
642.885;  -90.570; -787.120; -878.783
643.157;  -14.318; -810.120; -658.784
643.428;   76.309;  170.880;  218.216
643.700;  -55.514; -498.120; -425.784
643.972;  -21.711;  -16.119; -133.785
644.244;  -80.059; -474.119; -559.785
644.516;  -42.457; -250.119; -114.786
644.788;   49.745;  662.881;  548.214
645.060;   -3.828;  -12.119; -124.786
645.332; -103.825; -525.118; -535.787
645.603;   33.952;  479.882;  342.213
645.875;  -82.321; -334.118; -369.787
646.147;  157.706; 1487.882; 1242.212
646.418;   -9.342; -931.117; -918.788
646.690;  308.136; -714.117; -715.789
646.962;  113.288; -413.117; -451.789
647.233;   -0.835;   15.883;   11.211
647.505; -100.458; -595.117; -475.790
647.776;   43.769;  328.884;  229.210
648.048;   30.097; -248.116; -418.790
648.320;  -46.701; -752.116; -679.791
648.591; -144.574;-1055.116; -958.791
648.862;  -83.972; -505.116; -577.792
649.134;    3.630;  115.885;  198.208
649.405;  -10.917; -661.115; -618.792
649.677;  -27.815; -475.115; -598.793
649.948;   21.012; -181.115; -296.793
650.219;   -1.836;  -37.115; -147.793
650.491;  -61.584; -431.114; -520.794
650.762; -105.356; -705.114; -731.794
651.033;  -72.854; -437.114; -424.795
651.304;  -74.077; -743.114; -728.795
651.576;  -39.625; -680.114; -645.795
651.847;  -43.398; -250.113; -140.796
652.118;  -29.245;  -32.113; -189.796
652.389; -107.193; -639.113; -722.796
652.660;  -23.516; -147.113;  -89.797
652.931; -140.214; -897.112; -871.797
653.202;  -82.262; -382.112; -541.798
653.473;  -49.784; -633.112; -533.798
653.744;  298.368; -595.112; -590.798
654.015;  250.095; -356.112; -303.799
654.286;  -46.803; -642.111; -663.799
654.557;  -32.476; -586.111; -521.799
654.828; -132.873;-1114.111;-1088.800
655.099;  -81.946; -404.111; -291.800
655.370;  -93.394; -427.111; -543.801
655.641; -113.167; -656.110; -714.801
655.911; -100.115; -618.110; -638.801
656.182;   62.012;  437.890;  387.198
656.453;   92.790;  830.890;  746.198
656.724;  -70.883; -466.110; -426.802
656.994;  -69.456; -553.109; -568.803
657.265;  -79.104; -862.109; -873.803
657.536;  -78.202; -500.109; -377.804
657.806; -104.799; -561.109; -593.804
658.077; -115.797; -866.109; -950.804
658.347;  -80.120; -523.108; -598.805
658.618; -110.243; -646.108; -694.805
658.888;  -13.116;  -41.108;  112.195
659.159;  -58.938; -432.108; -548.806
659.429;   -0.161; -292.108; -349.806
659.700;   67.666; -435.107; -390.807
659.970;   23.918; -370.107; -359.807
660.241;   91.770; -754.107; -921.807
660.511;  805.323; -147.107; -174.808
660.781;  218.625; -793.106; -748.808
661.052;  -41.623; -222.106; -381.808
661.322;   -9.471;   21.894;   -9.809
661.592;   26.881;  257.894;  148.191
661.862;  -60.566; -369.106; -382.810
662.133;  -89.264; -551.105; -502.810
662.403; -102.387; -770.105; -676.810
662.673;  -67.535; -256.105; -213.811
662.943;  -79.308; -612.105; -551.811
663.213;    6.245;  -85.105;  -81.811
663.483;  -57.653; -593.104; -568.812
663.753;  -40.051; -194.104; -152.812
664.023;   -4.874;   68.896;  -32.813
664.293;  -64.522; -319.104; -126.813
664.563; -106.569; -694.104; -648.813
664.833; -129.117; -743.103; -608.814
665.103; -118.990; -730.103; -793.814
665.373; -109.463; -766.103; -806.814
665.643;  -43.336; -863.103; -918.815
665.913;  106.167; -534.103; -714.815
666.182;  279.019; -685.102; -719.816
666.452;  441.371;  -22.102;  -89.816
666.722;   44.098; -724.102; -784.816
666.992; -123.425; -948.102; -921.817
667.261;  -60.747; -824.102; -808.817
667.531;  299.630;  134.899;   45.183
667.801;  872.407; -440.101; -412.818
668.070;  307.084;  714.899;  697.182
668.340;  -78.164; -883.101; -840.819
668.609;  102.114;  588.900;  301.181
668.879;  -62.384; -490.100; -558.819
669.149;  -49.982; -539.100; -516.820
669.418;  -85.305; -698.100; -726.820
669.688;    3.097; -482.100; -666.820
669.957;  169.500; -423.099; -546.821
670.226;  -12.023; -268.099; -331.821
670.496;  -81.096; -431.099; -635.822
670.765;  -74.344; -418.099; -501.822
671.034; -122.692; -872.099; -828.822
671.304;   -4.989;   55.902; -111.823
671.573; -138.587;-1085.098; -957.823
671.842;  158.765; -380.098; -294.823
672.112;  107.067; -692.098; -586.824
672.381;   20.969; -239.098; -214.824
672.650; -107.078;-1005.097;-1021.825
672.919;  -70.826; -631.097; -507.825
673.188;  -84.224; -681.097; -878.825
673.457; -122.147;-1101.097;-1143.826
673.726;  -48.620; -579.096; -646.826
673.995;  -22.692; -533.096; -479.826
674.265;   22.060; -263.096; -333.827
674.534;   36.837; -183.096; -235.827
674.802;   49.089; -618.096; -703.828
675.071; 1471.166; -886.095; -801.828
675.340; 6134.594; -464.095; -339.828
675.609; 2024.671;  103.905;   82.171
675.878;  203.598; -949.095; -893.829
676.147;   57.675;  -26.095;   -8.829
676.416;  154.027; -210.094; -294.830
676.685; 1054.605; 1000.906; -622.830
676.953;  245.457; -603.094; -452.831
677.222;   -3.341; -193.094; -273.831
677.491;  -15.864;  -24.094; -127.831
677.759;    4.163;   11.907;  172.168
678.028;   13.340; -279.093; -222.832
678.297;   -0.232;   71.907;  197.168
678.565; -127.305; -898.093; -944.833
678.834;  -51.228; -311.093; -268.833
679.102;  -66.701; -411.092; -391.834
679.371; -125.349; -898.092; -727.834
679.639; -120.746; -797.092; -786.834
679.908; -112.044; -794.092; -724.835
680.176; -145.242; -895.091; -941.835
680.445;  -76.565; -346.091; -352.835
680.713;  -13.913;  -58.091;  -23.836
680.982;  -97.210; -523.091; -525.836
681.250;  -88.233; -578.091; -507.837
681.518; -100.981; -534.090; -751.837
681.787;   16.096; -204.090; -167.837
682.055;  -59.627; -490.090; -422.838
682.323; -125.974; -993.090; -992.838
682.591;   72.053; -216.090; -538.838
682.859;  157.855;    9.911;  -35.839
683.128;   29.782;  232.911;  497.161
683.396; -154.791;-1102.089;-1122.840
683.664;  -34.088; -241.089;   21.160
683.932;    8.864;  144.911;  -76.840
684.200;  -78.009; -576.088; -320.841
684.468;  -27.632;  -73.088; -124.841
684.736;  -35.905; -214.088; -175.841
685.004;  -85.177;-1024.088; -982.842
685.272;  -11.175; -880.088; -774.842
685.540;  -32.473; -499.087; -557.843
685.808;  -60.871; -651.087; -682.843
686.076;  -72.744; -894.087; -969.843
686.343;  -33.891; -601.087; -815.844
686.611;   90.786; -195.087; -224.844
686.879;  634.413; -530.086; -553.844
687.147; 4883.240; -483.086; -480.845
687.414; 1423.517;  -12.086; -169.845
687.682;   73.320; -658.086; -757.846
687.950;  460.147;  259.915;  263.154
688.217;  102.574; -792.085; -760.846
688.485;   39.601; -632.085; -636.847
688.753;  823.303;  -11.085; -102.847
689.020;  368.806; -820.085; -851.847
689.288;  -75.167; -853.084; -787.848
689.555;  -24.140; -195.084; -148.848
689.823;  -30.138; -241.084; -345.849
690.090;  -73.611; -546.084; -651.849
690.358; -135.458; -877.084; -897.849
690.625;   -1.206;  120.917;   45.150
690.892;  -49.429; -403.083; -369.850
691.160;  -10.077;   72.917;  -35.850
691.427;   13.575;  141.917;  130.149
691.694; -127.822; -855.083; -929.851
691.962; -121.070;-1177.082;-1060.852
692.229;   26.307;  127.918;   56.148
692.496;  132.409;  130.918;  -49.852
692.763;   38.286; -164.082; -201.853
693.031;  -46.361; -739.082; -716.853
693.298;   -4.184; -509.081; -368.853
693.565;  434.518; -155.081; -163.854
693.832; 1992.345;   -5.081;   -9.854
694.099;  290.372; -643.081; -642.855
694.366;  -28.625; -882.081; -896.855
694.633;  -12.673; -920.080; -633.855
694.900;  747.879; 4367.920; -114.856
695.167;  637.256; -214.080; -380.856
695.434;  186.508; -646.080; -623.856
695.701;  237.586;  121.921;  -61.857
695.968;  679.263; -365.079; -361.857
696.234; 1193.965; -415.079; -646.858
696.501;12211.442; -776.079; -614.858
696.768; 6725.819; -554.079; -617.858
697.035;  410.297; -632.078; -667.859
697.302;   82.974; -448.078; -552.859
697.568;   31.226; -458.078; -497.859
697.835;  -18.147; -683.078; -624.860
698.102;  -12.795; -498.078; -407.860
698.368;   89.583;  384.923;  396.139
698.635;  -21.315;  -47.077; -424.861
698.901;    2.587; -240.077; -348.861
699.168;  131.889; -534.077; -456.862
699.435;  131.241;  -72.077;  -13.862
699.701;  -88.457; -868.076; -764.862
699.968;   32.021;  144.924; -441.863
700.234;  -82.402; -783.076; -822.863
700.500;  -35.050; -448.076; -539.864
700.767;   16.352;   -1.075;   26.136
701.033; -110.996;-1015.075; -963.864
701.299;  -30.168; -450.075; -483.865
701.566;  133.684;  950.925;  763.135
701.832;   48.161;  -31.075;  -76.865
702.098;  -77.762;-1054.074;-1034.866
702.365;  -57.135;-1098.074;-1030.866
702.631;   27.943;-1038.074;-1063.867
702.897; 1828.245; -765.074; -676.867
703.163; 3305.122;  348.926;  254.133
703.429;  247.324; -256.073; -273.868
703.695;  -10.399; -796.073; -792.868
703.961;   43.554; -214.073; -210.868
704.227;  -13.944; -630.073; -725.869
704.493;  137.808;  613.927;  510.131
704.759;   15.135; -565.072; -540.870
705.025;   53.987; -203.072; -194.870
705.291;   26.665; -666.072; -562.870
705.557;  216.792;  719.928;   34.129
705.823;   76.644; -742.072; -694.871
706.089;  199.896; -307.071; -326.871
706.355;  444.273; -315.071; -244.872
706.620; 6254.826; -776.071; -729.872
706.886;10231.628; -309.071; -362.873
707.152; 1069.630; -818.070; -973.873
707.418;   47.707;-1153.070;-1186.873
707.683;   38.109; -550.070; -530.874
707.949;   -5.463; -547.070; -578.874
708.215;    5.189; -129.070; -207.874
708.480;   20.066; -520.069; -420.875
708.746;  146.768;   68.931;   28.125
709.011;  -39.205; -578.069; -612.876
709.277;  -67.402; -538.069; -543.876
709.542;  -26.100; -428.069; -387.876
709.808;   13.702;  -59.068;   89.123
710.073;  -52.921; -577.068; -695.877
710.339;   -6.869; -242.068; -228.877
710.604;  133.334; -780.068; -845.878
710.869;  503.861; -277.068; -366.878
711.135;  -45.837; -715.067; -628.879
711.400;  -73.810; -507.067; -608.879
711.665;  -44.083; -404.067; -479.879
711.931;  -83.780; -661.067; -677.880
712.196;  -91.503; -876.067; -954.880
712.461;  179.224; -402.066; -490.880
712.726;  306.151; -727.066; -771.881
712.991;  -69.947; -647.066; -664.881
713.256;  -32.844; -350.066; -332.882
713.521;  -46.267; -417.065; -381.882
713.787;  -44.965; -454.065; -472.882
714.052;  -17.213; -214.065; -400.883
714.317;  -52.211;-1045.065; -981.883
714.581; 1284.242; -374.065; -268.883
714.846; 2067.094; -822.064; -888.884
715.111;  172.296;  261.936;  257.116
715.376;    1.773;  -86.064; -223.885
715.641;   11.475; -365.064; -367.885
715.906;  492.428;   15.936; -551.885
716.171;  198.955;  221.937;  209.114
716.436;   82.932;  -78.063; -104.886
716.700;  -98.441; -818.063; -692.886
716.965; -121.064; -794.063; -807.887
717.230;  -69.111; -339.063; -392.887
717.494;  -14.384;  -40.062; -134.888
717.759;  -81.757; -784.062; -640.888
718.024;  -10.680;  269.938;  250.112
718.288;   80.447;  685.938;  395.111
718.553; -132.350; -803.062; -977.889
718.817; -135.098; -883.061; -899.889
719.082;  -45.246; -115.061; -125.890
719.346; -132.669;-1000.061; -947.890
719.611;  -40.842; -300.061; -255.891
719.875;  -87.614; -568.060; -537.891
720.140;  -38.262; -453.060; -603.891
720.404;   69.615; -136.060; -249.892
720.668; 1275.892; -475.060; -411.892
720.933;  531.369;  146.940;  137.108
721.197;  -70.878; -667.059; -600.893
721.461; -126.001; -851.059; -826.893
721.725;   -5.124;  -21.059; -250.894
721.990;  -59.947; -284.059; -204.894
722.254;  -25.495;  -26.059; -108.894
722.518;  -69.393; -286.058; -442.895
722.782;  -72.415; -743.058; -594.895
723.046;  151.787;  614.942;  570.105
723.310;   32.564;  374.942;  210.104
723.574;  -94.159; -654.058; -614.896
723.838;  -93.557; -576.057; -642.897
724.102;  -46.879; -226.057; -239.897
724.366; -129.427;-1032.057; -978.897
724.630;  -76.725; -749.057; -571.898
724.894;  -55.573; -722.057; -514.898
725.158;  -15.621;   38.944; -295.898
725.422;  -25.668; -394.056; -327.899
725.685;  -62.516; -441.056; -349.899
725.949;  -64.914; -566.056; -519.900
726.213;  -47.237; -732.056; -811.900
726.477;  334.140;-1020.055; -933.900
726.740;  248.893; -274.055; -104.901
727.004;  454.545; -384.055; -510.901
727.268; 4442.022; -442.055; -400.901
727.531; 1451.249; -961.055; -775.902
727.795;  -14.449; -713.054; -673.902
728.059;  -22.846; -552.054; -557.903
728.322;  -64.794; -841.054; -669.903
728.586;  117.633; -692.054; -701.903
728.849;  -56.590; -695.053; -756.904
729.112;  -89.188; -812.053; -912.904
729.376; -103.460; -959.053; -905.904
729.639;  -58.933; -536.053; -536.905
729.903;  -92.756; -733.053; -699.905
730.166;  -29.504; -437.052; -399.906
730.429;  -18.377; -317.052; -468.906
730.693;  -49.324; -355.052; -894.906
730.956;  229.953;  810.948;  651.093
731.219; 1057.130; -310.052; -103.907
731.482;  250.257;-1003.051; -894.907
731.745;  243.334; -794.051; -935.908
732.009;   39.037;  -30.051;   50.092
732.272;  -67.311; -904.051; -771.909
732.535;  -30.634; -300.051; -310.909
732.798; -127.782;-1083.050;-1166.909
733.061;  -58.755; -430.050; -456.910
733.324;   19.648;   31.950; -180.910
733.587;   80.325;  290.950;  365.090
733.850;  -42.823; -973.049;-1050.911
734.113;   51.379;   33.951;   32.089
734.376;   43.881; -328.049; -447.912
734.639;  267.534; 1188.951; 1011.088
734.901;  128.111; -180.049; -402.912
735.164;  722.738; -883.048; -837.913
735.427; 2041.515; -166.048; -355.913
735.690;  194.217; -205.048; -234.913
735.952;   43.020; -923.048; -925.914
736.215;   33.097;-1113.048;-1009.914
736.478;  112.599; -771.047; -774.915
736.740;  305.751;   33.953;  129.085
737.003;  902.178; -658.047; -672.915
737.266; 6058.031;  -94.047;   46.084
737.528;  706.408; -682.047; -660.916
737.791;  468.360; -316.046; -327.916
738.053;  994.812;  465.954;  649.083
738.316;13320.239; -162.046; -136.917
738.578;11157.967; -770.046; -736.918
738.841;  639.319; -382.046; -446.918
739.103;  295.721; -875.045; -777.918
739.365;  762.823;   79.955;  -69.919
739.628;   77.575; -884.045; -805.919
739.890;   23.903; -758.045; -710.919
740.152;   -7.745; -692.044; -754.920
740.414;   14.382; -408.044; -359.920
740.677;  -16.416; -785.044; -634.921
740.939;   -3.064; -587.044; -487.921
741.201;  428.089; -432.044; -572.921
741.463;  137.741; -689.043; -745.922
741.725;   46.643;  -21.043; -199.922
741.987;   85.920;  220.957;  116.078
742.249;   77.347; -751.043; -859.923
742.511;  373.725; -703.043; -794.923
742.773;   81.852; -546.042; -546.924
743.035;  144.429;  796.958;  533.076
743.297;   10.181; -963.042;-1013.924
743.559; 1080.583; -278.042; -262.925
743.821;  196.110; -735.042; -744.925
744.083;   41.638;  -44.041; -149.925
744.345;  -43.210; -869.041; -892.926
744.607;   56.617;   75.959;  122.074
744.868;   -5.331; -490.041; -554.927
745.130;  -78.129; -994.041;-1008.927
745.392;   80.899;   -1.040;  -44.927
745.653;   10.451; -411.040; -378.928
745.915;  183.478;  896.960;  631.072
746.177;   93.380;   35.960;  -43.928
746.438;   51.382; -428.040; -543.929
746.700;   16.710; -947.039; -988.929
746.961;   68.512; -659.039; -740.930
747.223;  222.139; -190.039;  -74.930
747.484;  172.816; -391.039; -471.930
747.746;  238.568;  -23.038; -106.931
748.007;  238.321; -647.038; -689.931
748.269;  439.873; -468.038; -440.931
748.530;  802.650; -852.038; -638.932
748.791;  434.327; -354.038; -420.932
749.053;  618.979;  286.963;  163.067
749.314;  676.582; -236.037; -169.933
749.575;  822.409; -945.037; -905.933
749.836; 1227.411; -217.037;   86.066
750.098; 3159.038;  -60.037;  -21.934
750.359;50301.215;  414.964;  555.066
750.620;15472.618; -121.036; -220.935
750.881; 1567.945; -585.036; -513.935
751.142; 1969.172; -950.036; -938.936
751.403;21313.499; -789.036; -705.936
751.664;11536.651;-1034.035; -999.936
751.925;  754.654; -175.035; -262.937
752.186;  428.331; -298.035; -278.937
752.447;  226.208; -590.035; -445.937
752.708;  134.285; -532.035; -648.938
752.969;   69.137; -566.034; -576.938
753.230;   55.315; -777.034; -672.939
753.491;   51.392; -650.034; -631.939
753.751;  115.244;  109.966;   19.061
754.012;  113.996;  258.967;  181.060
754.273;  107.648; -174.033;  -71.940
754.534;   70.251; -487.033; -580.940
754.794;  -36.822; -926.033; -911.941
755.055;  156.030; 1051.967;  881.059
755.316;   -0.693; -700.032; -566.942
755.576;   10.884; -606.032; -576.942
755.837;   -6.013; -527.032; -695.942
756.097;   -1.286; -530.032; -564.943
756.358;  -37.109; -725.032; -770.943
756.618;  -13.032; -705.031; -641.943
756.879;   49.195; -254.031; -349.944
757.139;  -91.902;-1098.031;-1116.944
757.400;  -27.250; -538.031; -553.945
757.660;   15.352; -365.031; -401.945
757.920;   48.779; -266.030; -228.945
758.181;   14.781; -468.030; -351.946
758.441;  -65.516; -870.030; -809.946
758.701;   -9.514; -308.030; -215.946
758.961;    2.313; -220.030; -278.947
759.222;  -47.610; -574.029; -502.947
759.482;  -56.533; -683.029; -723.948
759.742;  -74.780; -706.029; -547.948
760.002;    5.172;  -83.029; -143.948
760.262;   34.799;   50.972;  182.051
760.522;  -26.449; -498.028; -574.949
760.782;  -48.872; -738.028; -612.949
761.042;  -19.419; -618.028; -573.950
761.302;   50.858;   55.972;  -18.950
761.562;   62.235; -164.027; -154.951
761.822;  139.312; -710.027; -551.951
762.082;  -16.511;-1104.027;-1093.951
762.342;   67.992; -328.027; -403.952
762.601;   95.769; -567.027; -506.952
762.861;  458.221; -281.026; -207.952
763.121;  412.273; -406.026; -411.953
763.381; 6427.975; -499.026; -485.953
763.640; 8762.228; -139.026; -307.954
763.900;  377.405; -242.026; -203.954
764.160;   90.182; -458.025; -491.954
764.419;   -1.216; -726.025; -782.955
764.679;  -64.664; -795.025; -726.955
764.939;   -8.112; -124.025; -210.955
765.198;  -54.659; -608.025; -563.956
765.458;  -91.957; -710.024; -612.956
765.717;  -74.555; -454.024; -590.957
765.976;  -56.628; -428.024; -411.957
766.236;  -67.301; -475.024; -610.957
766.495;   14.302;  260.977;   73.042
766.755;  -37.396;-1090.023; -987.958
767.014;   49.806; -594.023; -665.958
767.273;  -49.367; -373.023; -397.959
767.533;  -33.665; -228.023; -307.959
767.792;  -32.687; -151.022; -188.960
768.051;  -59.535; -228.022; -276.960
768.310;  -77.058; -546.022; -650.960
768.569;   13.744; -161.022;    4.039
768.828;  -23.529; -285.022; -363.961
769.088;  -98.876;-1050.021; -942.961
769.347;  -71.299; -755.021; -599.962
769.606;  -99.247; -876.021; -857.962
769.865; -100.045;-1016.021;-1033.963
770.124;   -8.518; -411.021; -336.963
770.383;  -17.865; -778.020; -910.963
770.641;   18.787; -398.020; -400.964
770.900;  -39.236; -953.020; -846.964
771.159;  -28.709; -851.020; -951.964
771.418;   14.418; -917.020; -779.965
771.677;  153.121; -224.019; -293.965
771.936;  178.373; -794.019; -865.966
772.194; 2028.250; -465.019; -437.966
772.453;13080.202; -213.019; -391.966
772.712; 1000.804;  416.982;  329.033
772.970;  156.057;   32.982;   63.033
773.229;   97.684;  -22.018;  102.033
773.488;  -66.364; -814.018; -770.968
773.746;   61.038;  296.982;  335.032
774.005;   11.090;  190.983;  -22.969
774.263;   -1.657;  243.983;  177.031
774.522;  -42.655; -422.017; -548.969
774.780;  -82.303; -484.017; -417.970
775.039;  -89.451; -551.017; -531.970
775.297;  -23.899; -135.016; -351.970
775.555;  -89.371; -489.016; -612.971
775.814; -106.444; -618.016; -570.971
776.072; -121.717; -749.016; -740.971
776.330;  -90.790; -630.016; -520.972
776.589; -107.113; -703.015; -721.972
776.847; -115.310; -645.015; -624.973
777.105; -169.808;-1016.015;-1032.973
777.363;  -76.156; -459.015; -454.973
777.621; -128.654; -660.015; -717.974
777.879;  -24.977;  -42.014;   32.026
778.138;  -97.199; -554.014; -717.974
778.396;  -98.522; -585.014; -526.975
778.654; -156.220;-1015.014; -970.975
778.912;  -55.568; -269.014; -371.976
779.170; -122.491; -880.013; -803.976
779.427; -131.213; -922.013; -897.976
779.685; -109.711; -880.013; -832.977
779.943;  -64.984; -654.013; -593.977
780.201; -134.107; -964.012; -883.978
780.459; -118.630; -651.012; -610.978
780.717;  -75.852; -440.012; -390.978
780.974; -100.525; -449.012; -490.979
781.232;  -72.723; -358.012; -338.979
781.490;  -61.871; -551.011; -472.979
781.747;  -95.819; -555.011; -476.980
782.005;    0.209;  462.989;  254.020
782.263; -149.214; -542.011;-1004.981
782.520;  -85.462; -326.011; -501.981
782.778; -157.510;-1013.010;-1051.981
783.035; -167.658; -962.010; -938.982
783.293;  -61.230; -248.010; -206.982
783.550;  -66.928; -134.010; -198.982
783.808; -124.926; -764.010; -776.983
784.065; -153.924; -745.009; -874.983
784.322;  -39.122;   25.991;  -86.984
784.580; -129.269; -915.009; -771.984
784.837;  -84.942; -392.009; -466.984
785.094; -131.740; -783.009; -762.985
785.352;  -59.563; -304.008; -404.985
785.609;  -80.236; -934.008; -839.985
785.866;  -61.359; -345.008; -401.986
786.123;  -45.856; -639.008; -583.986
786.380;  -86.979; -665.008; -604.987
786.637;  -44.352; -225.007; -380.987
786.895;   39.950; -456.007; -543.987
787.152;  -39.598; -135.007; -267.988
787.409;  -35.695; -123.007; -225.988
787.666;  -78.293; -299.006; -378.988
787.923;  -90.141; -616.006; -695.989
788.179; -104.264; -551.006; -584.989
788.436;  -93.812; -585.006; -585.990
788.693;  -28.959;  -92.006;  -87.990
788.950;  190.993; -125.005; -112.990
789.207;  416.570; -381.005; -372.991
789.464;  -49.003; -161.005; -301.991
789.720;  -12.451;  150.995;  110.009
789.977; -160.923;-1003.005; -671.992
790.234;  -25.396;   44.996;  -66.992
790.490; -145.594; -884.004;-1031.993
790.747;  -23.667;  -85.004;   22.007
791.004;    5.235; -426.004; -348.993
791.260;  -78.987; -430.004; -560.994
791.517;  -87.335; -843.003; -788.994
791.773;  -33.733; -379.003; -342.994
792.030;  -90.006; -596.003; -660.995
792.286;  -91.279; -686.003; -636.995
792.543;  -13.501;  -74.002; -159.995
792.799;  -50.299; -584.002; -382.996
793.055; -146.197;-1179.002;-1210.996
793.312;  -89.270; -827.002; -816.997
793.568;  -47.193; -746.002; -599.997
793.824;   18.160; -226.001; -284.997
794.081;   36.837; -447.001; -508.998
794.337;   60.114; -664.001; -561.998
794.593; 1085.816; -319.001; -271.999
794.849; 7149.718; -746.001; -772.999
795.105;  469.471; -270.000; -261.999
795.361;   22.248; -490.000; -457.000
795.617;  -39.725; -875.000; -945.000
795.873;  -30.450; -360.000; -407.000
796.129;  -25.075; -368.000; -306.000
796.385;  -25.000; -124.000; -156.000
796.641;   72.000;  412.000;  550.000
796.897;  -81.250; -666.000; -635.000
797.153;   69.350;  453.000;  357.000
797.409;  -81.325; -785.000; -868.000
797.665;  -45.350; -625.000; -732.000
797.921;  -48.750; -775.000; -762.000
798.176;  -29.850; -744.000; -747.000
798.432;  -23.250; -824.000; -596.000
798.688;  -43.600;-1174.000;-1078.000
798.943;  106.975; -165.000; -147.000
799.199;   57.975;-1005.000; -959.000
799.455;  259.850;  369.000;  316.000
799.710;  201.375; -813.000; -380.000
799.966;  390.550; -162.000; -160.000
800.221;  604.975; -638.000; -721.000
800.477;11544.025; -743.000; -710.000
800.732;13465.025; -773.000; -800.000
800.988;  792.225;  205.000;  -19.000
801.243; 1511.075; -454.000; -344.000
801.498; 8109.925; -814.000; -739.000
801.754;  564.600; -289.000; -163.000
802.009;  101.275; -257.000; -335.000
802.264;  -16.525; -967.000;-1033.000
802.520;   40.275;  222.000;   -3.000
802.775;  -29.625; -524.000; -359.000
803.030;   67.425;  395.000;  356.000
803.285;  -90.875; -840.000; -903.000
803.540;  -46.200; -686.000; -699.000
803.795;   -0.150; -648.000; -583.000
804.051;  -31.600; -279.000; -346.000
804.306;   17.275;  168.000;  128.000
804.561;  171.475;  451.000;  362.000
804.816;  141.400;  714.000;  861.000
805.071;   12.450; -185.000; -280.000
805.325;  340.275; -257.000; -427.000
805.580;  -87.675; -841.000; -877.000
805.835;  -14.350; -204.000; -297.000
806.090;  -52.550; -760.000; -676.000
806.345;   -7.700; -344.000; -264.000
806.600;  -26.650; -549.000; -632.000
806.854;   -7.175; -408.000; -538.000
807.109;   -1.950; -493.000; -577.000
807.364;   25.300; -407.000; -328.000
807.618;   29.450; -415.000; -381.000
807.873;   96.775; -470.000; -494.000
808.128;  134.475; -257.000; -518.000
808.382;  148.125; -224.000; -332.000
808.637;   94.200; -440.000; -511.000
808.891;  230.075; -257.000; -180.000
809.146;  143.375; -902.000; -794.000
809.400;  334.050; -848.000; -923.000
809.654;  422.875; -779.000; -551.000
809.909;  569.650; -841.000; -927.000
810.163; 6807.025; -813.000; -651.000
810.418;23306.375; -940.000; -861.000
810.672; 1374.525; -685.000; -690.000
810.926;  745.075; -993.000; -973.000
811.180; 1269.575; -439.000; -372.000
811.434;27018.475;  240.000;  135.000
811.689;14464.425; -231.000; -365.000
811.943;  751.000; -936.000; -953.000
812.197;  330.700; -893.000; -671.000
812.451;  145.500; -379.000; -514.000
812.705;   -3.000; -809.000; -619.000
812.959;    5.925; -263.000; -388.000
813.213;   -9.225; -283.000; -209.000
813.467;   81.150;  470.000;  253.000
813.721;  -97.675; -764.000; -792.000
813.975;  -97.200; -826.000; -877.000
814.229;   38.875;  430.000;  353.000
814.482;  -56.925; -517.000; -566.000
814.736; -104.250; -766.000; -744.000
814.990; -114.925; -779.000; -872.000
815.244;  -44.600; -228.000; -285.000
815.497;  -88.300; -636.000; -601.000
815.751;  -25.375; -141.000;   82.000
816.005;  -74.575; -470.000; -586.000
816.258;  -66.375; -510.000; -363.000
816.512;  -98.675; -693.000; -610.000
816.766;    5.100;  121.000;  157.000
817.019;   27.725;  148.000;  149.000
817.273;  -94.550;-1000.000; -802.000
817.526;  -33.450; -206.000; -173.000
817.779;    3.725;-1049.000; -960.000
818.033;  -25.450; -693.000; -807.000
818.286; -113.700; -725.000; -792.000
818.540;  -94.600; -403.000; -403.000
818.793;  -71.925; -402.000; -489.000
819.046; -103.275; -582.000; -520.000
819.299;  -36.000; -157.000; -166.000
819.553;  -91.000; -552.000; -592.000
819.806; -155.925;-1016.000; -838.000
820.059;  -62.125; -334.000; -354.000
820.312;   18.650;  152.000;  185.000
820.565;  -23.925;  110.000;  -27.000
820.818;  -54.025;  -59.000; -173.000
821.071; -150.175;-1041.000; -957.000
821.324; -110.950; -536.000; -540.000
821.577;  -96.450; -457.000; -483.000
821.830;  -70.525; -270.000; -172.000
822.083; -125.875; -733.000; -288.000
822.336;  -59.875; -261.000; -167.000
822.589; -122.375; -805.000; -688.000
822.842; -138.675; -875.000; -770.000
823.094; -164.975;-1076.000;-1114.000
823.347; -127.200; -925.000; -729.000
823.600;   32.725;  402.000;  187.000
823.853;  -58.150; -311.000; -267.000
824.105;  -62.650; -331.000; -575.000
824.358;  -85.625; -617.000; -716.000
824.611;   45.100;  234.000;   40.000
824.863;  -31.800; -612.000; -591.000
825.116;   84.350;  -33.000;   27.000
825.368;  129.800; -366.000; -372.000
825.621;  261.150; -186.000; -240.000
825.873;  156.750; -704.000; -737.000
826.126;  683.925; -669.000; -641.000
826.378;14224.500; -389.000; -505.000
826.630; 4869.800; -890.000; -898.000
826.883;  135.375; -754.000; -693.000
827.135;   87.000; -279.000; -270.000
827.387;  -83.600; -893.000; -839.000
827.639;   -7.500;  -86.000;   32.000
827.892; -111.125; -742.000; -582.000
828.144; -121.525; -848.000; -804.000
828.396;  -44.200;  104.000;  -80.000
828.648;  -81.025; -440.000; -333.000
828.900; -145.875; -702.000; -795.000
829.152;  -95.125; -684.000; -683.000
829.404;  -69.325; -215.000; -267.000
829.656;   -1.725;  321.000;  214.000
829.908;  -32.600;  393.000;  229.000
830.160; -158.075;-1064.000;-1047.000
830.412;  -88.300; -481.000; -430.000
830.664; -106.350; -557.000; -665.000
830.916;  -74.750; -268.000; -206.000
831.167; -166.125;-1073.000; -951.000
831.419; -109.500; -623.000; -566.000
831.671; -146.050; -764.000; -809.000
831.923;  -75.200; -311.000; -447.000
832.174;  -56.975; -273.000; -331.000
832.426; -124.450; -493.000; -582.000
832.678; -164.725;-1043.000;-1091.000
832.929; -162.850; -947.000; -935.000
833.181;  -18.100; -575.000; -677.000
833.432;  -45.425;  -59.000; -186.000
833.684;  -24.150;  112.000;  -27.000
833.935; -108.050; -610.000; -566.000
834.187; -133.525; -829.000; -823.000
834.438;  -50.150;  -58.000;  -25.000
834.689;  -42.550; -255.000; -123.000
834.941;  -70.700; -343.000; -244.000
835.192;  -91.975; -590.000; -533.000
835.443;  -87.025; -419.000; -506.000
835.695;  -22.625;  138.000;  -16.000
835.946;  -94.575; -608.000; -378.000
836.197;  -86.675; -599.000; -622.000
836.448;  -81.925; -528.000; -395.000
836.699;  -53.800; -253.000; -341.000
836.950;  -13.750;   72.000;    7.000
837.201; -135.225;-1003.000; -987.000
837.452;  -40.075; -356.000; -170.000
837.703;  -98.900; -791.000; -737.000
837.954;  -16.800; -205.000; -365.000
838.205;  -45.750;-1029.000;-1008.000
838.456;  273.525; -196.000; -282.000
838.707;   55.825; -423.000; -519.000
838.958;   50.400; -634.000; -647.000
839.209;  403.125;   18.000;   40.000
839.460;  181.300; -439.000; -201.000
839.710;  216.925; -135.000; -297.000
839.961;  514.450;  730.000;  612.000
840.212;  464.975; -382.000; -497.000
840.462; 1306.725; -328.000; -277.000
840.713;20712.250; -571.000; -536.000
840.964;11269.275;  -62.000; -143.000
841.214;  745.900; -384.000; -624.000
841.465;  747.500; -214.000; -141.000
841.715;  683.175; -417.000; -380.000
841.966;  837.250; -746.000; -685.000
842.216; 8893.550; -330.000; -431.000
842.466;44155.525; -169.000; -313.000
842.717; 3442.025; -964.000; -952.000
842.967;  425.475; -635.000; -641.000
843.217;  376.475;   20.000;   28.000
843.468;  114.225; -104.000; -132.000
843.718;   -0.200; -718.000; -726.000
843.968;  -65.425; -837.000; -765.000
844.218;   59.950; -315.000; -262.000
844.469;  -13.600; -577.000; -561.000
844.719;  -91.925; -537.000; -682.000
844.969;  -95.875; -550.000; -580.000
845.219; -138.100; -814.000; -862.000
845.469;  -87.475; -392.000; -342.000
845.719; -128.300; -792.000; -884.000
845.969;   -2.600;  119.000;  174.000
846.219; -108.125; -738.000; -720.000
846.469;   22.950;  464.000;  432.000
846.718;  -54.800; -115.000;   31.000
846.968; -135.050; -827.000; -827.000
847.218;  -42.875; -224.000; -371.000
847.468;    2.150; -586.000; -555.000
847.718; -138.125; -827.000; -798.000
847.967; -137.200; -826.000; -915.000
848.217;  -75.150; -449.000; -569.000
848.467;  -55.525; -405.000; -376.000
848.716; -100.825; -708.000; -725.000
848.966;   31.750; -372.000; -358.000
849.215;  -38.450; -428.000; -419.000
849.465;  -93.350; -785.000; -615.000
849.714; -107.700;-1132.000;-1150.000
849.964;  -49.800; -551.000; -613.000
850.213;   12.925; -393.000; -355.000
850.463;   97.925;  137.000;  340.000
850.712;   29.425; -542.000; -567.000
850.961;   61.800; -739.000; -678.000
851.211;  177.400; -513.000; -504.000
851.460;  250.750; -635.000; -650.000
851.709;  723.725;  -25.000;   18.000
851.958;11720.100; -912.000; -750.000
852.208;19333.725; -859.000; -879.000
852.457;  800.275; -181.000;  -13.000
852.706;  142.150; -791.000; -823.000
852.955;   69.200; -507.000; -528.000
853.204;  -46.700; -521.000; -461.000
853.453;  -59.025; -418.000; -458.000
853.702; -125.075; -660.000; -750.000
853.951;  -98.650; -532.000; -520.000
854.200; -112.850; -613.000; -562.000
854.449; -121.150; -695.000; -661.000
854.698;  -86.650; -340.000; -279.000
854.946;  -79.125; -181.000; -284.000
855.195; -131.675; -843.000; -868.000
855.444;  -94.600; -395.000; -420.000
855.693; -113.600; -345.000; -432.000
855.941; -101.675; -387.000; -516.000
856.190;  -40.050; -256.000; -382.000
856.439; -119.125; -652.000; -703.000
856.687;  -54.050;  -99.000;  -72.000
856.936; -131.275; -621.000; -323.000
857.184; -172.750;-1067.000;-1020.000
857.433; -112.300; -423.000; -512.000
857.681; -154.150; -989.000; -953.000
857.930;  -65.550; -282.000; -433.000
858.178; -160.325; -856.000; -929.000
858.427; -146.975; -802.000; -781.000
858.675; -132.800; -377.000; -544.000
858.923; -101.225; -527.000; -819.000
859.172; -179.700;-1094.000;-1070.000
859.420;  -99.450; -339.000; -239.000
859.668; -111.150; -624.000; -628.000
859.916;  -36.275;  109.000;  115.000
860.164; -107.775; -699.000; -603.000
860.413;  419.825; -878.000; -696.000
860.661;  503.150; -709.000; -577.000
860.909;  -66.650; -339.000; -325.000
861.157;  -84.200; -277.000; -444.000
861.405; -128.100; -534.000; -670.000
861.653;   19.675;  310.000;  310.000
861.901;  271.625; -543.000; -613.000
862.149;  140.050; -801.000; -824.000
862.396;  -67.225; -297.000; -187.000
862.644;  -94.300; -368.000; -347.000
862.892;  -45.350;   98.000;  138.000
863.140; -111.800; -549.000; -530.000
863.388; -166.500; -815.000; -759.000
863.635; -131.600; -642.000; -601.000
863.883;  -14.875;  231.000;  190.000
864.131;  -85.525; -288.000; -357.000
864.378; -126.400; -675.000; -540.000
864.626;  -91.750; -347.000; -415.000
864.873; -119.950; -556.000; -505.000
865.121; -137.650; -714.000; -799.000
865.368;  -62.075; -173.000;   75.000
865.616;  -31.500;  -33.000;  -40.000
865.863;  -70.325; -462.000; -506.000
866.111;  -81.250; -795.000; -824.000
866.358;   37.675; -426.000; -420.000
866.605; 2307.800;  -64.000; -804.000
866.853; 3178.650; -621.000; -537.000
867.100;   17.900; -728.000; -775.000
867.347;  -90.175; -672.000; -611.000
867.594;  -66.775; -740.000; -714.000
867.841;  144.350;   97.000;   17.000
868.089; -129.350; -746.000; -698.000
868.336; -111.300; -477.000; -420.000
868.583; -139.100; -637.000; -741.000
868.830;  -64.700; -131.000; -170.000
869.077; -145.625; -859.000; -787.000
869.324; -133.575; -502.000; -458.000
869.571; -112.500; -398.000; -430.000
869.818; -129.050; -485.000; -439.000
870.065;  -95.550; -439.000; -513.000
870.311; -109.475; -456.000; -542.000
870.558; -104.425; -332.000; -311.000
870.805;  -89.075; -320.000; -384.000
871.052; -102.075; -494.000; -369.000
871.298;  -40.275; -204.000; -131.000
871.545;  -60.150; -151.000; -185.000
871.792;  -88.925; -173.000; -222.000
872.038;  -50.500;   43.000; -126.000
872.285; -125.100; -496.000; -387.000
872.532;  -91.700; -357.000; -387.000
872.778;    6.275;  556.000;  403.000
873.025;  -93.850; -384.000; -359.000
873.271;   12.700;  501.000;  578.000
873.517;   -6.250; -133.000; -209.000
873.764;  -13.475; -193.000;  -80.000
874.010;  -51.325; -143.000; -230.000
874.257;  -45.100;  123.000;   90.000
874.503; -126.800; -579.000; -479.000
874.749;  -76.225;   31.000;  275.000
874.995;  -74.225;  -80.000;  -20.000
875.242; -123.925; -540.000; -478.000
875.488; -113.850; -414.000; -439.000
875.734;  -55.875; -106.000; -234.000
875.980;  294.500; -872.000;-1032.000
876.226;  678.025; -157.000; -255.000
876.472;   12.275;  343.000;  237.000
876.718;  -40.400;  184.000;  158.000
876.964;  -32.500;   56.000;   55.000
877.210; -130.250; -547.000; -677.000
877.456; -139.050; -630.000; -557.000
877.702; -160.150; -821.000; -832.000
877.948; -103.700; -377.000; -497.000
878.193;    3.525;  361.000;  255.000
878.439;  -75.525; -487.000; -472.000
878.685; -108.950; -272.000; -343.000
878.931; -141.600; -618.000; -676.000
879.176;  -87.825; -201.000; -201.000
879.422; -173.800; -933.000; -820.000
879.668;   42.350;   10.000;   79.000
879.913;  243.400;   53.000;  137.000
880.159;  -45.850; -112.000;  -17.000
880.404;  -46.650; -152.000; -162.000
880.650;  -49.575;   91.000;  141.000
880.895; -156.650; -670.000; -710.000
881.141; -121.450; -454.000; -428.000
881.386; -145.000; -503.000; -658.000
881.631; -100.125; -311.000; -166.000
881.877;  -31.775;  112.000;  -13.000
882.122; -134.450; -684.000; -600.000
882.367;  -75.850; -136.000; -186.000
882.612;  -84.225;  -80.000; -176.000
882.858; -156.125; -877.000; -823.000
883.103; -101.750; -297.000; -267.000
883.348; -154.575; -759.000; -852.000
883.593; -136.325; -677.000; -602.000
883.838;  -58.750; -311.000;  -24.000
884.083;   37.050;  353.000;  288.000
884.328;  -97.500; -564.000; -545.000
884.573;  -54.750; -196.000; -143.000
884.818;  304.025; -694.000; -531.000
885.063;  397.150; -348.000; -315.000
885.308;  -95.600; -475.000; -398.000
885.553;  -17.550;  245.000;  325.000
885.797; -122.225; -545.000; -615.000
886.042;  -61.925;    8.000;   58.000
886.287;  -80.275; -253.000; -211.000
886.532;  -45.700;   26.000;  204.000
886.776; -103.600; -407.000; -525.000
887.021; -142.675; -621.000; -574.000
887.265; -149.800; -685.000; -689.000
887.510; -120.000; -557.000; -496.000
887.755;  -84.650; -194.000; -164.000
887.999; -153.300; -552.000; -575.000
888.244;  -69.450;  -58.000;  161.000
888.488;  -14.850;  371.000;  393.000
888.732; -130.225; -368.000; -520.000
888.977; -137.850; -622.000; -567.000
889.221; -131.925; -683.000; -659.000
889.465; -134.625; -422.000; -566.000
889.710;  -86.050;  -56.000; -299.000
889.954;   -7.950;  579.000;  467.000
890.198; -140.100; -584.000; -707.000
890.442; -159.450; -716.000; -712.000
890.687; -149.725; -800.000; -753.000
890.931; -104.375; -273.000; -210.000
891.175; -139.850; -502.000; -500.000
891.419;  -76.975; -105.000; -110.000
891.663;  -88.000; -239.000; -112.000
891.907; -166.375; -801.000; -545.000
892.151; -179.600; -920.000; -815.000
892.395; -124.600; -274.000; -387.000
892.638;  -31.525;  408.000;  291.000
892.882; -182.850; -780.000; -867.000
893.126;    2.150;  758.000;  558.000
893.370; -102.850; -167.000; -168.000
893.614; -160.225; -714.000; -715.000
893.857; -112.550; -183.000; -197.000
894.101; -122.500; -527.000; -631.000
894.345;  -56.050;  300.000;  150.000
894.588;   -2.750;  569.000;  380.000
894.832;  -92.550; -178.000;  -84.000
895.075;  -68.325;   15.000;  -92.000
895.319; -135.975; -552.000; -420.000
895.563; -108.500; -413.000; -353.000
895.806; -150.650; -628.000; -741.000
896.049;  -40.250; -576.000; -368.000
896.293;  145.675;  527.000;  405.000
896.536;  -19.725; -465.000; -468.000
896.779;  -55.450; -149.000;   -1.000
897.023; -131.100; -751.000; -714.000
897.266;  -24.475;  325.000;  269.000
897.509; -175.850; -900.000; -901.000
897.752;  -60.200;  149.000;  171.000
897.996; -174.375; -972.000; -864.000
898.239;  -50.050;  168.000;  102.000
898.482; -121.725; -431.000; -453.000
898.725;  -23.725;  101.000;   53.000
898.968; -135.200; -609.000; -744.000
899.211; -110.800; -513.000; -361.000
899.454;  -91.275; -633.000; -539.000
899.697;  -73.675;   90.000;  -43.000
899.940; -164.475; -761.000; -757.000
900.182; -106.000; -335.000; -405.000
900.425; -105.850; -150.000; -298.000
900.668;  -42.675;  491.000;  350.000
900.911; -100.775; -292.000; -345.000
901.154;  -59.725;  141.000;   -3.000
901.396; -134.150; -407.000; -412.000
901.639; -137.125; -430.000; -496.000
901.882; -175.950; -790.000; -809.000
902.124;  -96.000;  -29.000; -143.000
902.367; -121.800; -315.000; -361.000
902.609; -145.800; -476.000; -453.000
902.852;  -90.825; -108.000; -260.000
903.094; -124.750; -458.000; -337.000
903.337;  -62.525;  -26.000;   53.000
903.579; -118.100; -228.000; -441.000
903.821; -160.150; -597.000; -744.000
904.064;  -65.450;   85.000;  127.000
904.306;  -86.275; -126.000; -166.000
904.548; -108.025; -152.000; -366.000
904.790;  -95.675; -195.000; -340.000
905.033; -125.325; -625.000; -577.000
905.275; -133.200; -513.000; -524.000
905.517;   41.375;  468.000;  256.000
905.759;  -19.250; -667.000; -761.000
906.001;  -91.650; -322.000; -369.000
906.243;  -44.800; -162.000; -224.000
906.485;  169.925; -265.000; -207.000
906.727;  285.000; -499.000; -542.000
906.969;  -14.250;  -30.000; -135.000
907.211;  200.100; -316.000; -382.000
907.453;  470.500; -188.000; -237.000
907.695;   98.600; -158.000; -385.000
907.936;   31.350;  818.000;  706.000
908.178;  -53.550;   92.000; -135.000
908.420;  -75.950; -111.000; -162.000
908.662; -146.150; -633.000; -682.000
908.903;  -85.675; -208.000; -123.000
909.145;  -67.125; -240.000; -305.000
909.386;  -13.875;  315.000;  280.000
909.628;   27.800;  363.000;  397.000
909.870;  -13.725;   29.000;  264.000
910.111;  -88.250; -809.000; -949.000
910.353;   14.900; -123.000; -161.000
910.594;    9.650; -574.000; -606.000
910.835;   74.050; -265.000; -326.000
911.077;  146.450; -503.000; -604.000
911.318;  276.550; -505.000; -471.000
911.559;  449.800; -577.000; -880.000
911.801; 1213.625; -284.000; -280.000
912.042; 8852.025;  -50.000; -159.000
912.283;27873.850;  404.000;  371.000
912.524; 5600.600; -396.000; -457.000
912.765;  559.650; -193.000;   79.000
913.006;  261.425; -307.000; -338.000
913.247;   62.800; -270.000; -290.000
913.488;   -2.875;  -43.000;   30.000
913.729;  -76.250; -373.000; -373.000
913.970;  -58.825;  -96.000; -292.000
914.211;  -78.475; -160.000; -198.000
914.452;  -59.750; -118.000;  -11.000
914.693;    4.875;  510.000;  592.000
914.934;   16.900;  510.000;  440.000
915.175;  -70.300;   53.000;  -95.000
915.415;  -78.750; -137.000;   27.000
915.656;  -79.050;  -28.000;  192.000
915.897;  -82.000; -252.000;  -82.000
916.137;  -80.350;   74.000;   -9.000
916.378; -129.625; -573.000; -517.000
916.619;  -99.850; -159.000;  -63.000
916.859;  -18.725;  303.000;  330.000
917.100;  109.875; 1655.000; 1070.000
917.340;   48.350;  930.000;  728.000
917.581;   48.500;  965.000;  789.000
917.821;   -2.100; -171.000;  143.000
918.061;   69.475; -199.000;  -72.000
918.302;  -34.050; -152.000; -211.000
918.542;  -19.200;  -22.000;    3.000
918.782;   58.550;  369.000;  377.000
919.023;  162.425;  360.000;  427.000
919.263; 1501.250; 8131.000;  202.000
919.503; 1766.550; -137.000;  -54.000
919.743;  941.675;  390.000;  266.000
919.983;  501.800; -134.000;  -26.000
920.223;  124.700;  135.000;   14.000
920.463;  179.200;  631.000;  554.000
920.703;  181.650;   84.000;   39.000
920.943;  221.100; -110.000;   90.000
921.183;  329.125; -414.000; -405.000
921.423;  621.150;  307.000;  546.000
921.663;  930.700; -174.000; -257.000
921.903; 1875.450;  237.000;  173.000
922.143; 9691.200;  372.000;  389.000
922.383;40766.200;  158.000;  115.000
922.622;18073.825; -120.000;  -15.000
922.862; 1834.525;  796.000;  785.000
923.102;  662.900;  -51.000;   33.000
923.341;  283.925;   59.000;   74.000
923.581;  132.225;  450.000;  360.000
923.821;   43.300;  301.000;  398.000
924.060;   50.550;  351.000;  193.000
924.300;  -37.425;  -16.000; -128.000
924.539;    2.975;  584.000;  473.000
924.779;   10.400;  812.000;  597.000
925.018;  -44.975;  247.000;  353.000
925.257;   -4.200;  595.000;  666.000
925.497;  -40.125;  447.000;  412.000
925.736;  -84.225;  -35.000;  102.000
925.975;   -0.775;  687.000;  669.000
926.214;    4.300;  907.000;  850.000
926.454;    8.900;  706.000;  757.000
926.693;  -36.600;  419.000;  543.000
926.932;   13.525; 1021.000;  825.000
927.171;   65.375; 1107.000; 1044.000
927.410;   52.375; 1144.000;  967.000
927.649;   31.600;  924.000;  742.000
927.888;  -12.500;  590.000;  564.000
928.127;    2.275;  680.000;  678.000
928.366;   30.575;  842.000;  826.000
928.605;   47.150;  831.000;  737.000
928.844;  279.675; 1451.000; 1393.000
929.083;  816.750;  770.000;  613.000
929.321;  493.650; 1335.000; 1359.000
929.560;   97.750; 1158.000; 1122.000
929.799;  -14.350;  574.000;  475.000
930.038;   77.300; 1025.000; 1394.000
930.276;  -43.425;  334.000;  397.000
930.515;   -2.675;  827.000;  681.000
930.753;  -30.950;  614.000;  589.000
930.992;  -15.600;  664.000;  717.000
931.230;    2.350;  847.000;  847.000
931.469;  152.425; 2162.000;  892.000
931.707;   74.150;  840.000;  751.000
931.946;   42.625; 1278.000; 1344.000
932.184;   66.050; 1437.000; 1175.000
932.423;   53.475; 1265.000;  963.000
932.661;   99.200; 1296.000; 1428.000
932.899;   46.875;  987.000;  821.000
933.137;   37.750;  754.000;  564.000
933.376;  166.600; 1664.000; 1335.000
933.614;  173.550; 1759.000; 1196.000
933.852;   53.650; 1357.000; 1171.000
934.090;  134.275; 1722.000; 1747.000
934.328;  100.725; 1252.000; 1457.000
934.566;  103.675; 1431.000; 1110.000
934.804;  158.575; 1263.000; 1309.000
935.042;  526.325; 1861.000; 1850.000
935.280; 2097.150; 2088.000; 2063.000
935.518; 2421.650; 2113.000; 2007.000
935.756;  492.275; 2481.000; 2316.000
935.994;  204.475; 1808.000; 1751.000
936.231;  384.825; 2890.000; 2950.000
936.469;  213.750; 2367.000; 2378.000
936.707;  166.025; 2220.000; 2167.000
936.945;  224.975; 2825.000; 2882.000
937.182;  213.275; 2679.000; 2741.000
937.420;  313.350; 3602.000; 3031.000
937.657;  449.575; 3365.000; 3478.000
937.895;  403.400; 3331.000; 3488.000
938.133;  320.075; 3540.000; 3528.000
938.370;  334.050; 3896.000; 4191.000
938.607;  385.600; 4488.000; 4205.000
938.845;  534.200; 5587.000; 5549.000
939.082;  474.850; 5387.000; 5177.000
939.320;  520.950; 5799.000; 5728.000
939.557;  628.575; 6549.000; 6491.000
939.794;  722.000; 7285.000; 7097.000
940.031;  930.350; 8421.000; 8368.000
940.269; 1170.825; 9552.000; 9107.000
940.506; 1148.025;10901.000;10507.000

