
Integration time [ms]: 100.000
Averaging Nr. [scans]: 40
Smoothing Nr. [pixels]: 0
Data measured with spectrometer [name]: 2101013U2
Wave   ;Sample   ;Dark     ;Reference
[nm]   ;[counts] ;[counts] ;[counts] 

394.013;   59.083; -450.257; -315.536
394.305;  236.356; -461.258; -419.536
394.596;  948.460; -676.269; -527.514
394.887; 2172.075; -796.268; -654.518
395.178;  860.454;  145.736;   11.476
395.470;   95.989; -210.263; -356.526
395.761;  249.539;  305.734;  394.479
396.052;  401.092; -545.284; -306.489
396.343;  437.908; -557.276; -454.503
396.634;  163.578; -200.279; -290.497
396.926;  190.598; -618.268; -565.517
397.217;  159.137;   11.725;  -17.504
397.508;   74.452; -366.273; -154.507
397.799;   89.103; -555.279; -571.497
398.090;   24.048; -973.280; -902.495
398.381;  177.022;   11.708;  -11.473
398.672;   25.848; -585.292; -742.473
398.963;   76.534; -348.279; -373.498
399.254;  149.281;   54.709; -209.475
399.545;   -5.939;-1017.266; -883.520
399.836;   95.722; -407.277; -343.501
400.127;   70.674; -205.295; -209.468
400.418;   87.672; -423.274; -392.506
400.709;  109.936; -359.281; -333.493
401.000;   73.110; -268.291; -309.476
401.290;  112.515;  225.698;  115.545
401.581;   83.726; -166.286; -228.485
401.872;   42.398; -542.298; -486.462
402.163;   79.542; -313.296; -252.467
402.454;  113.732; -123.291; -163.475
402.744;  117.459; -844.297; -813.465
403.035;  610.563; -226.293;  -86.471
403.326;  785.950; -366.292; -384.474
403.617;  467.793;  204.701;  165.539
403.907;  251.322; -593.283; -679.490
404.198; 1968.897; -545.307; -599.446
404.489; 5316.402; -618.283; -588.491
404.779; 1963.868; -618.302; -660.456
405.070;  241.023;  -67.304; -174.451
405.360;  316.740; -259.293; -238.472
405.651;  371.304;  125.699;   98.542
405.942;  227.271;  209.714;  127.516
406.232;  410.810; -432.285; -413.487
406.523;  664.734;  641.706;  758.530
406.813;  149.898; -579.286; -644.484
407.104;  462.271;  261.708;  144.527
407.394;  291.869; -604.299; -591.462
407.685;  184.959;  336.715;  222.513
407.975;   95.126; -400.283; -382.490
408.265;  129.595; -134.289; -190.478
408.556;   79.404; -472.291; -459.475
408.846;  173.059;  474.706;  429.530
409.137;   93.603;   -1.288; -216.480
409.427;   49.835; -193.285; -271.487
409.717;   46.905; -776.273; -692.508
410.007;  145.079;    4.715; -170.486
410.298;  115.427; -360.295; -342.469
410.588;   97.757; -495.285; -510.486
410.878;   49.189; -792.287; -873.482
411.168;  138.475; -481.298; -478.463
411.459;  132.496; -295.283; -242.489
411.749;   68.953; -609.292; -507.474
412.039;   73.677; -755.289; -386.480
412.329;  206.641;   40.722;  132.501
412.619;  215.374;  -62.286; -148.485
412.909;  401.273;  639.711;  594.521
413.199;  411.498; -130.280; -251.495
413.490;  468.364;  521.710;  352.523
413.780;  146.702;-1013.279; -913.496
414.070;  333.209;  -46.276;  235.497
414.360;  417.912; -729.278; -666.498
414.650;  414.560; -726.288; -688.482
414.940;  479.476; -538.280; -441.496
415.230;  860.182;   50.712;   74.519
415.520; 5321.009;  155.730;   66.486
415.809;20584.785; -305.281; -125.493
416.099;15835.824; -388.277; -229.501
416.389; 4143.419;  435.726;  236.494
416.679; 2446.893;   91.738;   85.473
416.969;  459.368; -527.287; -503.483
417.259;  433.754;  341.721;  171.503
417.549;  650.984;  522.718;  318.508
417.838; 1389.600; -205.268; -147.518
418.128; 4444.144;  650.710;  492.522
418.418; 3710.761; -491.272; -579.509
418.708; 2552.870;    9.726;  -48.506
418.997; 9306.141; -474.275; -480.505
419.287; 9679.576; -733.273; -790.507
419.577; 8803.770; -160.283; -123.489
419.866;29769.073; -588.277; -498.501
420.156;31611.505; -242.270;  -55.513
420.446; 5931.236; -112.263;  -26.526
420.735; 1026.099; -376.271; -446.512
421.025;  875.261; 1830.722;  315.502
421.314;  887.698; -203.271; -226.512
421.604; 2150.868;   89.732;  233.484
421.893; 1258.944; -705.271; -602.511
422.183;  238.236; -487.263; -461.526
422.472;  387.646;  -36.271; -107.511
422.762;  476.192; -416.266; -379.521
423.051;  274.809; -916.276; -916.503
423.341;  351.553; -491.273; -439.507
423.630;  459.022; -121.265;   15.477
423.919;  395.765;   58.725;   49.495
424.209;  367.991;  -31.263;   56.473
424.498;  456.497;   68.732;  161.483
424.787;  966.778; -535.267; -601.518
425.077; 3075.471;   34.735;   29.478
425.366; 5007.946; -734.262; -744.528
425.655; 8410.153;  639.727;  259.493
425.945;15519.867; -313.247; -268.554
426.234; 8768.143;  117.741;  300.467
426.523; 4351.947;  -86.259; -350.534
426.812; 5951.388;  107.734;  159.480
427.101; 8505.140; -127.269; -323.515
427.390;11263.734;  -55.270;  -86.514
427.680; 3306.791; -624.257; -411.538
427.969;  549.876; -330.255; -301.540
428.258;  353.883; -385.257; -477.536
428.547;  616.215;  449.728;  397.490
428.836; 1644.541; -421.253; -398.543
429.125; 2422.699; -199.259;  -72.534
429.414;  948.788; -330.251; -294.548
429.703; 2681.988; -231.251; -213.548
429.992; 7726.891; -938.250; -828.549
430.281; 5043.454; -397.264; -331.524
430.570;  624.054;  -21.252;   32.454
430.859;  710.597;  279.741;  352.466
431.148;  529.738;  636.752;  631.446
431.437;  332.403;  391.748;  367.454
431.725;  161.859; -544.257; -481.536
432.014;  115.123; -845.253; -756.545
432.303;  431.559; -149.239; -105.569
432.592;  731.485; -460.263; -178.525
432.881;  928.115; -601.248; -437.554
433.169; 4889.052; -343.255;  -61.540
433.458; 9994.816;  445.765;  540.424
433.747; 4411.852; -397.261; -289.529
434.036; 1112.912; -275.242; -280.564
434.324; 1882.853; -395.249; -379.551
434.613; 3144.631;   40.757;  159.437
434.902; 1230.900;  333.760;  439.433
435.190;  944.208;   75.761;  295.431
435.479;  512.089;  -52.245;   83.441
435.767;  183.071; -411.244; -427.561
436.056;  291.508; -340.242; -294.563
436.345;  367.877; -372.240; -223.568
436.633;  394.698;   60.750;  383.450
436.922;  378.930;  208.760;  414.432
437.210; 1046.807; -194.236;    1.426
437.499; 3400.139; -583.235; -432.576
437.787; 3686.231; -339.236;  -10.574
438.075;  846.914;   56.761;  162.430
438.364; 1142.941;  -44.238;  250.429
438.652;  701.064; -286.226; -138.592
438.941;  197.005;    3.770;  269.415
439.229;   32.151; -665.252; -466.545
439.517;   64.322; -160.234;  -85.577
439.806;   32.979; -501.225; -290.595
440.094;  212.004;  377.766;  650.421
440.382;  310.308; -653.233; -302.580
440.670;  336.089; -361.235; -285.576
440.959;   53.820; -347.223; -170.599
441.247;  112.316; -151.229; -109.587
441.535;  159.771; -266.235;   31.423
441.823;   68.677; -497.234; -305.578
442.111;  230.795;  173.771;  327.412
442.400;  782.688; -628.245; -335.559
442.688; 2299.354; -111.234; -620.579
442.976; 1729.553; -786.213; -450.617
443.264;  187.385; -324.224; -364.597
443.552;  152.515; -258.226;   51.408
443.840;  217.469;  602.765;  876.423
444.128;  130.232;  265.767;  269.420
444.416;   31.623; -694.228; -312.588
444.704;   39.948; -465.219;  -92.605
444.992;  117.368;   -0.226;  240.407
445.280;   83.156; -517.230;  -94.585
445.568;   90.556; -694.212; -396.618
445.856;  491.983; -174.221;  357.398
446.143; 1192.895;  -54.220;   -7.604
446.431;  950.751;  -25.228;  625.411
446.719;  313.166;  489.783;  675.391
447.007;  212.026;  481.769;  705.416
447.295;  194.967;  597.777;  871.402
447.583;   98.964; -464.229;  -34.587
447.870;  208.830; -434.221; -202.601
448.158;  550.730; -104.230;  129.415
448.446;  444.545; -800.219; -338.604
448.733;  192.437;   13.776;  269.403
449.021;  287.905;   60.788;  341.382
449.309;  196.420; -296.210;  208.379
449.596;  236.563;  128.783;   59.392
449.884;  174.649; -571.222; -325.600
450.172;  132.756; -756.227; -406.590
450.459;  369.137;  645.786;  780.387
450.747; 1814.461; -411.218; -147.608
451.034; 5743.952;  493.772;  889.411
451.322; 4735.890; -413.214; -170.614
451.609;  416.988;  292.777;  508.403
451.897;  473.254; -550.203; -183.634
452.184; 1429.868; -622.223; -400.598
452.472; 1392.165;   97.792;  269.375
452.759;  362.346;  512.781;  864.395
453.047;  159.228; -407.212; -125.617
453.334;  114.803; -732.219; -216.606
453.621;  137.542; -438.214; -161.615
453.909;  148.996;   13.796;  384.368
454.196;  154.064; -299.199; -123.641
454.483;  249.441;  317.798;  540.364
454.771;  186.267; -215.208;  196.374
455.058;   53.296; -316.207;  102.374
455.345;  106.565;   71.807;  344.347
455.632;   83.724; -128.207;  235.373
455.919;   57.335;  -82.196;  182.354
456.207;  -46.382; -774.198; -450.642
456.494;    0.602; -475.200;  -66.639
456.781;    6.312; -399.202; -198.635
457.068;   71.555; -253.206;  -29.628
457.355;   23.181; -698.206; -401.629
457.642;   13.486; -552.205; -290.630
457.929;   22.907; -778.194; -417.651
458.216;   86.028; -575.212; -354.617
458.503;  193.386; -173.193;  -19.652
458.790;  182.615; -864.208; -630.625
459.077;  263.941;  -77.202;  110.364
459.364;  646.850; -350.195; -210.649
459.651; 1363.803;  -46.206;  220.372
459.938;  663.206; -864.209; -665.623
460.225;  194.919;  132.799;  276.363
460.512;  -28.543; -836.197; -688.645
460.799;  142.685;  -32.218;  320.392
461.086;  111.981; -370.200; -251.640
461.372;   76.393; -509.198; -279.642
461.659;  172.861; -165.196;  108.354
461.946;   95.685; -445.193;  -54.651
462.233;  292.529;  842.800;  888.361
462.519;  315.876; -814.201; -464.639
462.806;  864.083; -768.197; -497.645
463.093;  720.129; -445.191;  -66.656
463.380;  -24.107; -920.186; -824.664
463.666;   80.584; -259.197;  -18.646
463.953;  102.821; -406.195; -243.648
464.239;  170.770; -173.195;  -77.648
464.526;  435.531;  413.806;  743.350
464.813;  425.365; -565.190; -304.658
465.099;  415.811;  606.807;  607.348
465.386;  411.215;  903.807;  921.348
465.672;   82.233; -694.197; -522.645
465.959;   53.857; -598.188; -520.662
466.245;   44.915; -468.193; -359.652
466.532;  127.093; -109.195;   63.352
466.818;  114.568; -357.186; -216.664
467.104;    9.630; -488.182; -415.672
467.391;  -14.883; -628.189; -459.658
467.677;   47.896; -289.186;    9.335
467.964;   31.973; -682.189; -471.660
468.250;   96.299; -331.186; -160.665
468.536;   90.518;   90.811;  180.341
468.822;  -30.240; -821.184; -574.668
469.109;  149.931;  351.827;  471.311
469.395;  187.724;  729.808;  787.346
469.681;  200.321;   46.811;  156.341
469.967; 1009.675; -699.188; -382.660
470.254; 2165.308; -494.188; -306.662
470.540; 1346.060; -601.196; -476.646
470.826;  210.766; -488.181; -397.675
471.112;  240.563;  288.816;  113.331
471.398;   88.492; -253.183;  -58.670
471.684;   49.542; -626.177; -447.680
471.970;    7.369; -918.180; -981.675
472.256;   19.948; -521.192; -441.654
472.542;   36.566; -499.171; -434.691
472.828;   44.777; -743.182; -607.672
473.114;   46.257; -380.166; -283.700
473.400;   27.708; -504.175; -293.684
473.686;   70.738; -452.166; -400.701
473.972;   70.622; -230.174; -131.687
474.258;  -40.544; -925.173; -843.689
474.544;  136.510; -183.178;   -2.679
474.830;  220.034;  -65.175;   45.316
475.116;  329.767; -123.190; -196.658
475.401;  466.522; -558.180; -467.676
475.687;  165.771; -725.180; -718.676
475.973;   37.084; -673.181; -770.673
476.259;  275.611;  736.825;  764.315
476.544;  343.825; -539.176; -437.682
476.830;  600.263; -398.172; -322.690
477.116;  488.999; -430.177; -336.682
477.401;  124.021;  346.820;  358.324
477.687;   -5.142; -289.175; -405.684
477.973;   30.737;   21.819;   28.326
478.258;    1.257; -448.163; -348.706
478.544;   77.179;   21.815;   61.334
478.829;  -35.604; -818.171; -738.692
479.115;  -31.513; -749.172; -651.690
479.401;   -3.558; -444.174; -449.686
479.686;   29.920; -253.180;  -74.676
479.972;  -46.711; -886.178; -776.680
480.257;   44.134; -258.166;  -65.700
480.542;   12.450; -614.170; -469.693
480.828;  242.806; 1288.824; 1392.317
481.113;  -30.046; -464.176; -426.683
481.399;    5.454; -236.161; -202.711
481.684;  -54.067; -620.166; -462.700
481.969;   17.242; -158.159;  -73.713
482.255;   -0.165; -439.169; -285.695
482.540;  -11.685; -569.178; -441.680
482.825;    4.113; -395.187; -404.663
483.110;   78.788;  -85.169; -105.696
483.396;  104.687; -840.157; -652.718
483.681;  356.322;  543.826;  730.313
483.966;   99.936; -696.160; -700.712
484.251;   12.621; -404.174; -310.687
484.536;   11.118; -356.165; -378.703
484.822;   12.249; -205.173; -218.687
485.107;  -18.752; -599.152; -502.726
485.392;  129.673;  662.836;  541.296
485.677;   84.322;  354.832;  163.302
485.962;  127.985;  160.843;  270.283
486.247;  105.590;  -14.162;   -8.707
486.532;   27.335; -178.166; -325.701
486.817;  164.599;  381.839;  431.291
487.102;  105.607; -453.154; -514.722
487.387;  481.389; -637.156; -652.718
487.672;  814.353; -154.164;  -38.705
487.957;  552.056; -394.160; -286.711
488.241;  163.039; -290.150; -314.729
488.526;  527.024; -280.152; -148.726
488.811;  843.341; -881.177; -818.680
489.096;  648.660; -666.154; -702.723
489.381;  390.871;    3.847;  162.275
489.666;  236.554; -428.161; -510.710
489.950;  163.662;  558.846;  627.277
490.235;  -22.391; -480.151; -458.728
490.520;  -45.122; -756.161; -723.710
490.804;  -49.534; -827.156; -736.719
491.089;   -0.172; -469.149; -299.732
491.374;   51.477; -132.164;  -75.704
491.658;    0.664; -817.147; -717.735
491.943;  200.103; -657.152; -609.727
492.227;  288.278; -178.155;  -38.721
492.512;   69.985; -294.157; -341.717
492.797;  -63.852; -713.149; -716.731
493.081;  -45.783; -588.147; -598.735
493.366;  -32.295; -751.161; -635.711
493.650;  206.642;  831.859;  917.254
493.935;   16.889; -648.147; -447.734
494.219;  -41.695; -778.142; -687.743
494.503;  -44.357; -585.150; -487.730
494.788;   47.052;   46.842;   74.285
495.072;   98.265;  184.850;  434.271
495.356;  161.156; -463.148; -343.733
495.641;  455.673; -812.146; -736.736
495.925;  450.670; -976.156; -903.719
496.209;   60.103; -599.149; -451.732
496.494;  -30.470; -763.142; -544.744
496.778;    8.732; -364.154; -360.722
497.062;  -60.230; -819.156; -627.719
497.346;  -50.742; -869.160; -640.711
497.631;  128.935;  580.852;  560.266
497.915;   73.608;  -64.145;  175.261
498.199;   59.737; -341.157; -277.718
498.483;   45.898; -562.152; -508.725
498.767;  160.941;  301.850;  300.271
499.051;  131.576; -126.149; -100.732
499.335;    8.174; -693.149; -739.731
499.619;  -33.089; -381.129; -423.767
499.903;   46.377; -272.155;  -65.721
500.187;   39.239; -588.153; -316.724
500.471;   13.878; -796.152; -595.727
500.755;  104.679;   62.839;  -96.710
501.039;   46.252; -270.155; -357.721
501.323;  114.443;  -21.141;  264.254
501.607;   54.333; -447.163; -503.706
501.891;    2.564; -607.156; -512.718
502.174;   -9.457; -726.144; -585.741
502.458;   78.231;   89.849;  370.273
502.742;   34.116; -180.138; -191.751
503.026;   62.413; -412.147; -254.734
503.310;  103.391; -437.159; -375.713
503.593;   65.490; -464.147; -325.735
503.877;  130.028; -232.133; -156.760
504.161;  202.466;    2.847;  -50.724
504.444;  129.029; -841.158; -710.716
504.728;  332.826; -487.164; -522.704
505.012;  548.163; -257.150;  -76.729
505.295;  417.480; -417.161; -212.711
505.579;  409.095; -256.156; -496.719
505.862;  548.079; -555.145; -333.738
506.146;  493.668; -681.159; -758.714
506.429;  326.719;  568.841;  461.286
506.713;   52.285; -732.151; -667.728
506.996;  262.507;   90.846;  295.278
507.280;  250.847; -633.165; -474.703
507.563;  178.326; -469.155; -261.721
507.847;   66.940; -423.153; -112.724
508.130;   50.980; -665.161; -456.711
508.413;   61.379; -758.167; -577.700
508.697;  165.805; -151.167;   12.300
508.980;   88.916; -422.153; -312.724
509.263;  -13.653; -466.155; -450.720
509.547;   27.613; -124.150;   82.271
509.830;   45.907; -172.160;  140.289
510.113;   89.695;  128.844;  298.281
510.396;   35.046; -530.152; -300.725
510.680;  307.856; -818.145; -812.738
510.963; 1045.411;  184.846;  180.277
511.246; 1003.770; -493.150; -357.730
511.529;  286.260; -482.145;  -83.739
511.812;  259.775; -250.134;   10.241
512.095;  167.258; -740.151; -396.728
512.378;   53.844; -317.147; -245.736
512.661;   19.948; -703.137; -623.753
512.944;    3.056; -750.142; -637.744
513.227;   39.345; -170.137; -171.752
513.510;   30.818; -479.144; -671.741
513.793;   27.097; -485.140; -435.747
514.076;  136.056;  -43.127;  -39.771
514.359;   88.554; -294.149; -135.732
514.642;   78.909; -442.142; -567.744
514.925;  573.646;  581.860;  561.253
515.208;  685.197; -498.134; -443.758
515.491;  461.060; -276.133; -182.761
515.773;  269.172; -410.143; -337.742
516.056; 1482.354;  249.864;  409.246
516.339; 2177.507; -754.136; -652.755
516.622; 2068.643; -518.150; -488.730
516.904; 1848.728;  882.857;  975.257
517.187;  892.494; -730.138; -523.752
517.470;  429.552; -568.143; -510.743
517.752;  321.460; -624.136; -470.756
518.035;  259.982; -708.139; -725.749
518.318;  234.057; -799.136; -744.755
518.600; 1645.788; -300.132; -325.762
518.883; 2277.809;  310.858;   88.256
519.165; 1157.262; -585.138; -426.751
519.448;  394.563;  -61.132;  -19.762
519.730;  224.863; -573.126; -415.773
520.013;  381.456;  588.867;  664.240
520.295; 1256.402;  -94.134;  -15.759
520.578; 2875.025; -335.131; -305.764
520.860; 3149.213; -254.132;   56.238
521.143; 1543.812; -763.135; -584.756
521.425;  468.075; -251.125; -279.775
521.707;  551.756; -622.127; -380.771
521.990; 1311.681; -199.127;  167.229
522.272; 1454.899; -116.140;   -4.748
522.554;  835.022; -237.143; -157.742
522.836;  468.350;  -24.134;   99.241
523.119;  276.287; -496.148; -189.734
523.401;  155.856; -448.130; -314.766
523.683;   61.748; -865.137; -693.753
523.965;  204.067;  408.862;  260.248
524.247;  218.170;   54.878;  170.220
524.529;  164.476; -451.134; -367.759
524.812;  313.358;   -3.130;  191.234
525.094;  585.391; -773.138; -631.751
525.376;  966.633; -143.124;   78.223
525.658;  553.080; -441.136; -339.754
525.940;   13.972; -805.131; -671.764
526.222;   30.958; -188.136;  -88.755
526.504;  168.295; -190.131;   32.237
526.786;  307.329; -960.133; -647.760
527.068;  472.613; -124.123;  -67.778
527.349;  234.527; -865.137; -774.754
527.631;  145.337; -137.132;   22.238
527.913;   88.280; -664.127; -450.771
528.195;  100.543; -761.125; -639.774
528.477;  163.472;  -93.134;  -30.758
528.759;   71.808; -648.130; -522.766
529.040;   21.237; -569.123; -293.778
529.322;   50.446; -235.125;  -10.774
529.604;  174.885;  -47.130;   93.233
529.886;  195.612; -546.126; -302.773
530.167;  155.802;  232.870;  192.235
530.449;   60.018;    1.853;   63.265
530.731;    4.719; -572.122; -459.779
531.012;   20.063; -513.120; -216.784
531.294;   35.975; -118.116;  -43.792
531.575;  133.075;  290.875;  538.225
531.857;   12.642; -548.135; -266.757
532.138;  100.092; -113.141;   40.254
532.420;  205.839;  294.865;  403.244
532.701;  311.056; -722.133; -751.760
532.983;  429.809;  232.867;  182.239
533.264;  163.136; -243.126;  175.228
533.546;  -30.517; -491.136; -508.755
533.827;   72.228;  173.867;   -1.759
534.109;   67.167; -352.135;  -80.757
534.390;  129.166; -725.132; -582.762
534.671;  243.763; -270.135;  -82.756
534.953;  130.865; -751.123; -611.779
535.234;   11.336; -426.117; -255.789
535.515;  -81.254; -891.119; -735.785
535.796;  -40.248; -431.128; -193.770
536.078; -109.842;-1050.124; -904.777
536.359;   11.066;  -22.123;    3.221
536.640;   -6.780; -480.125; -197.774
536.921;  166.040;  225.871;  143.232
537.202;  316.963;  -87.138;  -16.751
537.483;  353.899;  251.869;  377.236
537.764;  128.577;   17.870;   98.235
538.045;  -45.129; -543.134; -371.758
538.326;  -32.209; -596.129; -447.768
538.607;   -0.868; -686.127; -476.771
538.888;  140.830;   98.879;    5.218
539.169;  124.375; -704.122; -535.781
539.450;  301.739;  236.871;   16.233
539.731;  207.984; -361.121; -182.783
540.012;  129.013;  199.880;  412.216
540.293;  108.203;   82.876;  158.224
540.574;   33.894; -895.113; -717.796
540.855;  442.282;  435.879;  377.218
541.136;  509.472;   47.878;  139.220
541.416;  226.259; -161.130; -220.766
541.697;  137.945; -274.131; -170.763
541.978;  735.690; -270.135; -315.757
542.259;  987.807; -211.127; -236.771
542.539;  460.469; -191.116; -186.790
542.820;  182.399;  461.875;  480.225
543.101;  125.007;  -52.145;  -77.738
543.381;   50.156; -638.127; -591.771
543.662;  200.404;  159.873; -254.771
543.942;  408.527; -751.127; -830.770
544.223;  774.349;  193.878;  161.219
544.504;  488.133; -275.124; -182.777
544.784;  452.812; -592.126; -408.773
545.065; 1249.573;  104.884; -254.791
545.345; 1495.371;  227.881;   14.215
545.626;  941.369;  -14.113; -108.796
545.906;  618.252;   77.869;   98.235
546.186;  257.467;   92.874;  -95.773
546.467;  139.935;   99.877;  -95.778
546.747;  250.969;  264.884;  327.210
547.027;  283.381;   91.876;  111.223
547.308;  229.177; -376.127; -530.770
547.588;  317.817;  299.871;  371.232
547.868;  172.553;  458.870;  588.235
548.149;  155.805;  609.885;  593.207
548.429;   85.205; -347.127; -299.771
548.709;  100.088; -645.120; -461.784
548.989;  341.530;   84.882;   88.213
549.269; 1491.286;   10.868;  139.239
549.550; 3426.789;  215.877;  117.222
549.830; 3026.435; -758.111; -556.799
550.110;  589.192; -468.110; -320.801
550.390;  581.319; -128.122;  -56.779
550.670;  804.240; -868.114; -783.795
550.950;  561.707; -509.121; -471.782
551.230;  169.003;  549.879;  460.218
551.510;  -13.919; -381.121; -326.782
551.790;   19.375; -173.109; -127.803
552.070;  210.810;  940.877; 1181.223
552.350;  269.400; -492.119; -377.786
552.630;  394.176;   -2.121;   77.219
552.909;  259.473;  181.884;   73.209
553.189;  152.992;  -49.132;   33.237
553.469;  113.525; -703.119; -514.786
553.749;  110.283; -469.127; -357.772
554.029;  115.990;   33.883;  -24.790
554.308;   85.659; -154.115;  -37.794
554.588;   28.201; -196.128; -204.770
554.868;   28.283; -366.121;  -47.782
555.147;   97.231; -114.115;  -46.793
555.427;  398.700; -260.116; -250.792
555.707; 2725.704; -284.115; -200.793
555.986; 3295.463; -719.111; -538.800
556.266; 1714.543;   23.884;   72.210
556.546;   41.806; -888.121; -675.782
556.825;  156.413; -657.114; -556.794
557.105; 1229.324; -125.128;   17.230
557.384; 1472.397;  122.884;  187.209
557.664;  520.425; -717.116; -508.792
557.943;   56.957; -557.121; -411.782
558.222;  103.533; -345.118; -344.788
558.502;  196.632; -116.115;  -76.793
558.781;  381.128;  194.885;  499.208
559.061;  271.858; -232.118; -227.788
559.340;  194.762;  302.883;  353.211
559.619;  488.043;   93.884;  148.210
559.899;  664.214; -239.117; -266.789
560.178;  626.257; -778.115; -593.793
560.457; 2144.616; -623.117; -562.790
560.736; 3022.790; -472.111; -482.800
561.015; 1974.197; -500.128; -502.769
561.295;  290.568;  180.893;  215.193
561.574;  279.979;  119.885;  116.207
561.853;  400.404;  274.891;  303.197
562.132;  340.384;  -45.114;  182.206
562.411;  312.327;  396.879;  553.219
562.690;   56.478; -592.115; -458.792
562.969;  110.625;  472.888;  630.203
563.248;  470.799; 2966.878; 2487.219
563.527;  182.614; -290.111; -408.800
563.806;  237.805; -650.127; -521.771
564.085;  288.082; -297.105; -206.810
564.364;  137.867; -594.117; -405.790
564.643;  322.127; -276.121; -223.781
564.922; 1290.348;  221.890;  397.198
565.201; 1244.601; -640.109; -700.803
565.479;  532.577; -297.115; -219.792
565.758;  196.199; -810.128; -712.770
566.037;  335.377; -155.109; -100.803
566.316;  174.847; -286.116;  -28.791
566.595;   32.404;  -17.115;  -12.793
566.873;   96.891; -166.111;  -79.801
567.152;  -66.150; -490.113; -590.797
567.431;   10.444; -113.116;    6.210
567.709;    0.319; -344.107; -212.807
567.988;  148.587; -810.114; -769.794
568.266;  374.204; -160.115;  -68.793
568.545;  267.701; -644.100; -514.819
568.824;  396.351;  160.885;  356.208
569.102;  333.162; -351.114; -235.794
569.381;  123.600; -492.116; -407.792
569.659;  -60.704; -553.113; -553.796
569.938;   -3.827; -743.122; -465.780
570.216;   67.680; -225.109; -225.804
570.494;  -51.160; -632.114; -572.795
570.773;   33.256;  202.879;  114.218
571.051;  -12.987; -373.123; -357.778
571.330;   21.719; -221.113; -174.796
571.608;    3.718; -181.098; -173.823
571.886;  -94.941; -671.111; -581.799
572.164;  -97.642; -739.121; -621.782
572.443;  -56.414; -562.105; -512.811
572.721;  -50.884; -399.117; -289.790
572.999;  -22.515; -280.117; -168.788
573.277;   78.130;  379.894;  620.191
573.555;  195.507;   94.894;   37.190
573.834;  902.310;  -86.117; -114.788
574.112; 1077.346;  880.893;  811.193
574.390;  305.665; -143.111;  -96.801
574.668;    2.276;  -91.112;  -61.797
574.946;  -18.768; -165.106; -187.810
575.224;    8.626;   71.891;  -16.803
575.502;  -13.505; -200.116; -204.791
575.780;  -89.973; -767.112; -829.798
576.058;   90.539; 1589.889; 1004.200
576.336;  -31.406; -210.110; -129.801
576.614;  -62.898; -511.112; -340.798
576.891;    6.408; -711.115; -823.794
577.169;  327.787; -158.108; -285.805
577.447;  406.170;  169.893;  202.193
577.725;  206.331;  629.888;  854.201
578.003;   14.054;  -71.112; -371.798
578.280;   84.719; -208.104; -242.812
578.558;   55.857; -450.115; -422.793
578.836;  116.040; -210.114; -145.795
579.114;   54.900; -630.112; -670.797
579.391;   67.061;   -6.117;  -18.789
579.669;  -62.066; -595.114; -704.794
579.947;  104.017; -326.107; -127.806
580.224;  199.867; -692.107; -524.806
580.502;  217.246;  127.893;   76.193
580.779;   23.292;  -42.117;   75.210
581.057;  -77.245; -584.109; -470.804
581.334;  -84.667; -726.102; -695.815
581.612;   25.308;   54.895;  511.190
581.889;  -29.604;  -83.101; -129.818
582.167;  -49.766; -298.099; -190.821
582.444; -102.959; -845.102; -814.817
582.721;   92.316;  657.899;  715.183
582.999;   36.356; -326.100; -167.821
583.276;  334.192; -812.123; -713.779
583.553;  471.561; -364.102; -294.816
583.831;   97.266; -607.104; -631.812
584.108;   44.885;  349.892;  174.195
584.385;    1.058; -122.102;  -98.815
584.662;  -75.134; -651.111; -828.801
584.940;   24.965;  204.889;  204.199
585.217;   -7.454;  -73.113; -303.796
585.494;   39.299;   71.890;  118.198
585.771;  152.831; -250.109; -354.804
586.048;  367.821; -196.113;  -76.796
586.325;  215.043; -721.110; -773.801
586.602;   68.270;  230.896;  213.188
586.879;  -42.497; -499.100; -580.820
587.156;   12.109; -156.105; -331.810
587.433;  -59.861; -701.102; -667.817
587.710;   52.928;  152.888;  234.202
587.987;  232.438; -264.105; -236.811
588.264;  642.429;  315.888;  387.202
588.541; 1037.622;  -61.104;   26.187
588.818; 2057.608;   72.892;  171.196
589.095; 1753.843; -163.104; -174.812
589.371;  267.804; -459.109; -414.804
589.648;  -10.104; -581.107; -437.807
589.925;   -7.059; -517.114; -621.795
590.202;   -9.073; -741.112; -607.798
590.478;   53.415; -166.105;  -73.811
590.755;  170.589; -241.108; -132.806
591.032; 1678.921; -741.110; -699.802
591.308; 2347.181; -732.094; -790.831
591.585; 1193.995; -573.110; -560.802
591.862;   61.640;-1056.102; -950.817
592.138;   17.261; -475.108; -474.805
592.415;   97.670; -486.104; -495.813
592.691; 1099.668;  460.896;  518.188
592.968; 1384.495; -208.098; -123.824
593.244;  651.144; -695.116; -595.790
593.521;   46.790; -105.102;  -42.817
593.797;  -44.405; -810.122; -720.780
594.074;  215.507; -611.096; -588.826
594.350;  509.967;  828.905;  729.172
594.626;  191.291; -303.111; -283.801
594.903;   50.991; -643.101; -645.817
595.179;  141.424;  243.896;  418.187
595.455;  -14.428; -136.107; -150.807
595.731;   14.250;  -19.103;  -38.814
596.008;  -56.614; -464.111; -434.800
596.284;   15.955; -187.100; -242.820
596.560;   20.312; -501.093; -493.833
596.836;  131.210; -173.105;  -70.810
597.112;  219.062; -582.108; -437.805
597.388;  179.105;  -49.097;  -48.826
597.665;   87.173;  437.887;  530.203
597.941;  -74.061; -572.089; -658.839
598.217;   -9.477; -323.110; -293.802
598.493;  174.807;   61.891; -204.804
598.769;  341.150; -175.100;  -50.819
599.045;  193.090; -490.108; -562.806
599.321;   11.879; -193.100; -261.820
599.597;   81.082; -355.109; -476.804
599.872;  352.022;  409.896;  429.187
600.148;  252.981;  -61.097; -172.826
600.424;  198.319;   91.893;  202.193
600.700;  159.746; -170.107; -280.807
600.976;   61.351; -442.097; -464.825
601.252;  153.704; -226.109; -272.803
601.527;  106.573; -833.104; -840.813
601.803;   78.491; -453.105; -404.812
602.079;  115.975; -124.100; -118.819
602.354;  392.496; -620.092; -531.835
602.630;  592.621; -140.113; -482.796
602.906; 1609.921; -910.101; -863.818
603.181; 4710.975; -627.119; -534.786
603.457; 4078.654;   98.903; -278.826
603.733;  564.959; -605.120; -626.783
604.008;  705.232; -245.106; -164.810
604.284; 2223.267; -636.101; -580.817
604.559; 1932.706;   -3.112;  -42.799
604.835;  337.110; -163.105; -225.810
605.110;  259.059; -732.099; -892.821
605.385;  513.314;  224.907;  267.167
605.661;  420.545; -625.095; -729.829
605.936;  771.840; -664.108; -737.806
606.211;  668.757;  -17.103; -170.815
606.487;  121.211; -329.114; -376.794
606.762;  -21.550; -791.119; -745.786
607.037;  -41.865; -501.105; -433.810
607.313;  -65.462; -589.096; -574.828
607.588;  -24.243; -375.106; -137.810
607.863;   19.245;  -28.101; -143.818
608.138;  138.172;  513.890;  516.198
608.413;  -10.462; -576.099; -592.822
608.688;    9.987; -203.108; -267.805
608.964;  116.452; -509.106; -218.809
609.239;  145.608; -107.105; -212.810
609.514;  185.365;  281.895;  240.188
609.789;  437.369; -187.104; -716.812
610.064;  615.587; -435.096; -609.827
610.339;  574.929; -855.109; -799.804
610.614;  776.030; -131.100; -315.820
610.889;  439.840;  215.895;  107.188
611.163;    5.341; -407.104; -591.812
611.438;   35.037;   81.886; -167.794
611.713;  -19.558; -467.101; -499.817
611.988;   20.494; -144.101; -328.818
612.263;  -50.792; -771.102; -717.815
612.538;  149.370;  385.887;  251.204
612.812;   72.206; -832.100; -911.820
613.087;   71.068; -358.098; -338.823
613.362;  -74.728; -497.107; -557.807
613.637;   29.078;  261.897;  138.186
613.911;  -27.204; -256.092; -345.835
614.186;   52.345; -249.107; -292.807
614.460;  408.034; -842.081; -758.854
614.735;  512.211;  -55.087;  -17.843
615.010;   82.401;   43.912;  -82.841
615.284;  163.811;  360.892;  246.195
615.559;  231.420; -792.092; -955.835
615.833;  197.411;  -76.099;  -87.822
616.108;  -11.569; -225.090; -390.837
616.382;   95.612;  274.913;  402.156
616.656;   92.357; -241.090; -232.837
616.931;  345.887; -785.099; -700.822
617.205;  749.898; -973.104; -979.813
617.480;  680.473;  -91.125;    6.225
617.754;  106.620; -396.125; -128.774
618.028;  -20.707; -369.129; -382.768
618.302;   42.160;   73.892;  -25.805
618.577;  -59.596; -371.103; -518.815
618.851;  -61.674; -399.109; -600.803
619.125;  -60.199; -335.134; -378.759
619.399;  -44.676; -244.104; -374.813
619.673;  -64.574; -330.115; -515.792
619.947;  -66.035; -333.114; -448.795
620.222;  -35.208; -198.110; -204.801
620.496;    4.457;  -47.121;  -96.782
620.770;    5.850; -187.122;  -93.781
621.044;  154.959;  323.895;  346.190
621.318;  517.235; -653.120; -614.783
621.592;  466.883; -430.121; -409.783
621.866;  201.807; -476.112; -572.799
622.140;   10.445; -207.116; -356.791
622.413;   34.261;  138.889;  112.200
622.687;  -64.783; -746.101; -492.817
622.961;   -1.790; -130.108; -143.805
623.235;  -67.913; -633.111; -661.800
623.509; -114.535; -816.105; -848.811
623.783;    2.643;  -12.107;   48.193
624.056;  -41.414; -254.120; -280.783
624.330;   33.001;   63.888;   -3.797
624.604;   18.567; -271.116; -355.790
624.877;   43.146;  180.890;   26.198
625.151;   13.735; -249.114; -238.794
625.425;  -42.700; -150.103; -283.814
625.698;  -67.905; -367.119; -374.785
625.972; -110.226; -799.110; -765.802
626.245;   61.644;  685.884;  484.210
626.519;  -46.985; -426.120; -340.784
626.792;  -49.504; -192.107; -380.807
627.066; -103.207; -485.122; -662.779
627.339;  -97.205; -736.110; -663.802
627.613;   31.763;  351.880;  148.216
627.886;   26.575;  187.891; -612.803
628.160;   -9.690;  312.880; -161.783
628.433;  -89.750; -695.125; -703.775
628.706;  -87.335; -517.120; -615.784
628.979;   21.856;  296.876;  117.223
629.253; -115.726; -785.119; -833.786
629.526;  223.811; -334.126; -253.772
629.799;  216.488; -641.123; -479.778
630.072;   72.044; -497.128; -516.769
630.346;  -93.331;-1115.116;-1080.790
630.619;  271.547; -467.107; -545.808
630.892;  462.637;  709.889;  593.200
631.165;  251.973;  790.896;  679.187
631.438; -105.921;-1092.112;-1055.798
631.711;   28.391;  453.877;  257.221
631.984;  -65.786; -523.117; -624.789
632.257;  -84.739; -636.117; -681.789
632.530;  -52.080; -412.119; -433.785
632.803;    4.833; -109.115;    7.207
633.076;  -90.890; -360.123; -422.777
633.349;    6.173;  173.872;  121.231
633.622;  -36.181; -187.119; -240.785
633.895; -142.889; -903.120; -823.783
634.167;  -65.912; -496.126; -525.773
634.440;  -20.700;  -19.116; -137.792
634.713;   -7.427;  -22.119; -120.786
634.986;   66.189;  593.871;  453.233
635.258;  -82.644; -507.115; -597.793
635.531;   90.557;  742.882; -343.788
635.804;  -29.362; -303.117; -318.789
636.077;  -88.329; -830.116; -852.791
636.349;  -27.345; -586.115; -474.793
636.622;  325.460; 1695.874; 1392.228
636.894;  147.740; -474.120; -909.784
637.167;   52.530; -836.127; -789.771
637.439;    7.551; -278.128; -213.770
637.712;  -48.913; -312.126; -293.772
637.984;  -90.928; -635.116; -707.791
638.257;  309.785;  515.877;  488.222
638.529;  409.001; -881.125; -924.776
638.802;  167.769; -508.128; -449.769
639.074; -116.226; -927.122; -952.781
639.346; -115.306; -942.135; -930.757
639.619;    7.633;  -79.142; -319.744
639.891;  -19.557;  -83.122; -168.779
640.163;  -66.230; -689.122; -756.780
640.435;   23.971;  273.878;  103.220
640.708;   -3.327;  -72.122; -132.780
640.980;  -27.400; -366.122; -362.781
641.252;  155.076;  -25.121;  -71.781
641.524; 1469.803;  580.879;  573.219
641.796; 1460.030;-1094.121; -907.782
642.068;  258.157; -191.121; -300.782
642.340;  -55.492; -486.121; -566.783
642.613;   22.335;  294.880;  323.217
642.885;  -94.063; -787.120; -878.783
643.157;  -74.837; -810.120; -658.784
643.428;   44.990;  170.880;  218.216
643.700;  -80.958; -498.120; -425.784
643.972;  -33.806;  -16.119; -133.785
644.244; -108.005; -474.119; -559.785
644.516;  -48.903; -250.119; -114.786
644.788;   54.399;  662.881;  548.214
645.060;  -20.175;  -12.119; -124.786
645.332; -102.073; -525.118; -535.787
645.603;   29.529;  479.882;  342.213
645.875;  -80.469; -334.118; -369.787
646.147;  159.732; 1487.882; 1242.212
646.418; -106.266; -931.117; -918.788
646.690;   51.036; -714.117; -715.789
646.962;   -8.413; -413.117; -451.789
647.233;   -9.336;   15.883;   11.211
647.505; -121.009; -595.117; -475.790
647.776;   22.643;  328.884;  229.210
648.048;   -9.106; -248.116; -418.790
648.320;  -86.229; -752.116; -679.791
648.591; -149.727;-1055.116; -958.791
648.862;  -88.751; -505.116; -577.792
649.134;   -5.824;  115.885;  198.208
649.405;  -58.372; -661.115; -618.792
649.677;  -81.071; -475.115; -598.793
649.948;  -19.694; -181.115; -296.793
650.219;  -14.117;  -37.115; -147.793
650.491;  -91.815; -431.114; -520.794
650.762; -119.314; -705.114; -731.794
651.033;  -88.737; -437.114; -424.795
651.304; -107.535; -743.114; -728.795
651.576;  -74.784; -680.114; -645.795
651.847;  -54.957; -250.113; -140.796
652.118;  -22.555;  -32.113; -189.796
652.389; -110.903; -639.113; -722.796
652.660;  -32.002; -147.113;  -89.797
652.931; -143.600; -897.112; -871.797
653.202;  -84.073; -382.112; -541.798
653.473;  -85.147; -633.112; -533.798
653.744;   83.355; -595.112; -590.798
654.015;   88.182; -356.112; -303.799
654.286;  -76.516; -642.111; -663.799
654.557;  -88.565; -586.111; -521.799
654.828; -164.588;-1114.111;-1088.800
655.099;  -91.836; -404.111; -291.800
655.370;  -93.985; -427.111; -543.801
655.641; -127.308; -656.110; -714.801
655.911;  -95.556; -618.110; -638.801
656.182;   59.221;  437.890;  387.198
656.453;  101.872;  830.890;  746.198
656.724;  -64.151; -466.110; -426.802
656.994;  -87.199; -553.109; -568.803
657.265; -124.898; -862.109; -873.803
657.536;  -91.596; -500.109; -377.804
657.806; -100.194; -561.109; -593.804
658.077; -124.293; -866.109; -950.804
658.347;  -81.041; -523.108; -598.805
658.618; -110.864; -646.108; -694.805
658.888;  -28.662;  -41.108;  112.195
659.159;  -83.286; -432.108; -548.806
659.429;  -32.409; -292.108; -349.806
659.700;    1.143; -435.107; -390.807
659.970;  -39.056; -370.107; -359.807
660.241;  -26.629; -754.107; -921.807
660.511;  340.773; -147.107; -174.808
660.781;   42.575; -793.106; -748.808
661.052;  -54.774; -222.106; -381.808
661.322;  -23.072;   21.894;   -9.809
661.592;   -3.620;  257.894;  148.191
661.862;  -78.969; -369.106; -382.810
662.133;  -96.042; -551.105; -502.810
662.403; -118.365; -770.105; -676.810
662.673;  -53.888; -256.105; -213.811
662.943; -100.062; -612.105; -551.811
663.213;  -16.260;  -85.105;  -81.811
663.483;  -84.683; -593.104; -568.812
663.753;  -52.782; -194.104; -152.812
664.023;   -9.330;   68.896;  -32.813
664.293;  -70.078; -319.104; -126.813
664.563; -109.951; -694.104; -648.813
664.833; -125.800; -743.103; -608.814
665.103; -115.723; -730.103; -793.814
665.373; -117.971; -766.103; -806.814
665.643; -106.370; -863.103; -918.815
665.913;  -10.943; -534.103; -714.815
666.182;   86.809; -685.102; -719.816
666.452;  186.160;  -22.102;  -89.816
666.722;  -51.038; -724.102; -784.816
666.992; -144.761; -948.102; -921.817
667.261;  -90.559; -824.102; -808.817
667.531;  175.242;  134.899;   45.183
667.801;  479.544; -440.101; -412.818
668.070;  222.321;  714.899;  697.182
668.340; -105.803; -883.101; -840.819
668.609;   76.074;  588.900;  301.181
668.879;  -79.574; -490.100; -558.819
669.149;  -88.997; -539.100; -516.820
669.418; -101.196; -698.100; -726.820
669.688;  -64.969; -482.100; -666.820
669.957;   32.783; -423.099; -546.821
670.226;  -57.241; -268.099; -331.821
670.496; -107.564; -431.099; -635.822
670.765;  -96.512; -418.099; -501.822
671.034; -141.985; -872.099; -828.822
671.304;  -25.609;   55.902; -111.823
671.573; -151.807;-1085.098; -957.823
671.842;   19.495; -380.098; -294.823
672.112;  -12.154; -692.098; -586.824
672.381;  -12.452; -239.098; -214.824
672.650; -147.225;-1005.097;-1021.825
672.919; -102.648; -631.097; -507.825
673.188; -103.497; -681.097; -878.825
673.457; -159.945;-1101.097;-1143.826
673.726;  -86.868; -579.096; -646.826
673.995;  -67.392; -533.096; -479.826
674.265;  -40.315; -263.096; -333.827
674.534;  -25.738; -183.096; -235.827
674.802;  -16.761; -618.096; -703.828
675.071;  684.140; -886.095; -801.828
675.340; 2798.067; -464.095; -339.828
675.609;  932.644;  103.905;   82.171
675.878;    3.870; -949.095; -893.829
676.147;    9.197;  -26.095;   -8.829
676.416;   39.249; -210.094; -294.830
676.685;  543.100; 1000.906; -622.830
676.953;   41.152; -603.094; -452.831
677.222;  -42.296; -193.094; -273.831
677.491;  -23.094;  -24.094; -127.831
677.759;   -9.168;   11.907;  172.168
678.028;  -29.491; -279.093; -222.832
678.297;  -29.739;   71.907;  197.168
678.565; -143.163; -898.093; -944.833
678.834;  -66.736; -311.093; -268.833
679.102;  -74.184; -411.092; -391.834
679.371; -146.557; -898.092; -727.834
679.639; -126.806; -797.092; -786.834
679.908; -121.529; -794.092; -724.835
680.176; -149.502; -895.091; -941.835
680.445;  -89.201; -346.091; -352.835
680.713;  -13.649;  -58.091;  -23.836
680.982; -113.972; -523.091; -525.836
681.250; -104.970; -578.091; -507.837
681.518; -100.819; -534.090; -751.837
681.787;  -31.792; -204.090; -167.837
682.055;  -82.640; -490.090; -422.838
682.323; -146.864; -993.090; -992.838
682.591;   10.913; -216.090; -538.838
682.859;   50.840;    9.911;  -35.839
683.128;   -1.258;  232.911;  497.161
683.396; -162.007;-1102.089;-1122.840
683.664;  -48.080; -241.089;   21.160
683.932;    5.647;  144.911;  -76.840
684.200;  -95.702; -576.088; -320.841
684.468;  -26.350;  -73.088; -124.841
684.736;  -53.098; -214.088; -175.841
685.004; -128.997;-1024.088; -982.842
685.272;  -71.695; -880.088; -774.842
685.540;  -69.368; -499.087; -557.843
685.808; -106.891; -651.087; -682.843
686.076; -118.940; -894.087; -969.843
686.343;  -89.338; -601.087; -815.844
686.611;   16.539; -195.087; -224.844
686.879;  298.340; -530.086; -553.844
687.147; 2381.192; -483.086; -480.845
687.414;  667.494;  -12.086; -169.845
687.682;  -34.404; -658.086; -757.846
687.950;  226.247;  259.915;  263.154
688.217;  -40.126; -792.085; -760.846
688.485;  -40.874; -632.085; -636.847
688.753;  363.952;  -11.085; -102.847
689.020;   51.879; -820.085; -851.847
689.288; -106.044; -853.084; -787.848
689.555;  -45.242; -195.084; -148.848
689.823;  -55.266; -241.084; -345.849
690.090;  -97.164; -546.084; -651.849
690.358; -139.537; -877.084; -897.849
690.625;  -14.961;  120.917;   45.150
690.892;  -76.409; -403.083; -369.850
691.160;  -13.207;   72.917;  -35.850
691.427;    1.920;  141.917;  130.149
691.694; -140.404; -855.083; -929.851
691.962; -146.952;-1177.082;-1060.852
692.229;   -1.575;  127.918;   56.148
692.496;   58.626;  130.918;  -49.852
692.763;   -3.422; -164.082; -201.853
693.031;  -73.570; -739.082; -716.853
693.298;  -72.944; -509.081; -368.853
693.565;  212.858; -155.081; -163.854
693.832;  888.560;   -5.081;   -9.854
694.099;   79.837; -643.081; -642.855
694.366;  -71.262; -882.081; -896.855
694.633;  -66.735; -920.080; -633.855
694.900;  717.717; 4367.920; -114.856
695.167;  321.343; -214.080; -380.856
695.434;   65.370; -646.080; -623.856
695.701;  184.272;  121.921;  -61.857
695.968;  343.699; -365.079; -361.857
696.234;  877.725; -415.079; -646.858
696.501; 9785.377; -776.079; -614.858
696.768; 5005.629; -554.079; -617.858
697.035;  292.955; -632.078; -667.859
697.302;   29.007; -448.078; -552.859
697.568;   -2.666; -458.078; -497.859
697.835;  -50.414; -683.078; -624.860
698.102;  -42.313; -498.078; -407.860
698.368;   68.164;  384.923;  396.139
698.635;  -38.434;  -47.077; -424.861
698.901;  -32.608; -240.077; -348.861
699.168;   32.569; -534.077; -456.862
699.435;   50.221;  -72.077;  -13.862
699.701; -122.077; -868.076; -764.862
699.968;   21.474;  144.924; -441.863
700.234;  -93.124; -783.076; -822.863
700.500;  -48.097; -448.076; -539.864
700.767;   -8.721;   -1.075;   26.136
701.033; -127.094;-1015.075; -963.864
701.299;  -68.292; -450.075; -483.865
701.566;  104.109;  950.925;  763.135
701.832;   21.061;  -31.075;  -76.865
702.098; -101.537;-1054.074;-1034.866
702.365; -118.635;-1098.074;-1030.866
702.631;  -46.559;-1038.074;-1063.867
702.897; 1092.593; -765.074; -676.867
703.163; 1851.395;  348.926;  254.133
703.429;  115.421; -256.073; -273.868
703.695;  -33.752; -796.073; -792.868
703.961;    9.500; -214.073; -210.868
704.227;  -49.648; -630.073; -725.869
704.493;  113.153;  613.927;  510.131
704.759;  -22.020; -565.072; -540.870
705.025;   29.332; -203.072; -194.870
705.291;   -9.967; -666.072; -562.870
705.557;  187.710;  719.928;   34.129
705.823;   26.437; -742.072; -694.871
706.089;  138.739; -307.071; -326.871
706.355;  379.465; -315.071; -244.872
706.620; 5760.792; -776.071; -729.872
706.886; 7673.869; -309.071; -362.873
707.152;  631.345; -818.070; -973.873
707.418;   -5.428;-1153.070;-1186.873
707.683;   -2.501; -550.070; -530.874
707.949;  -34.949; -547.070; -578.874
708.215;  -16.348; -129.070; -207.874
708.480;  -21.971; -520.069; -420.875
708.746;   64.581;   68.931;   28.125
709.011;  -53.718; -578.069; -612.876
709.277;  -76.466; -538.069; -543.876
709.542;  -48.739; -428.069; -387.876
709.808;  -24.388;  -59.068;   89.123
710.073;  -83.411; -577.068; -695.877
710.339;  -42.634; -242.068; -228.877
710.604;   44.843; -780.068; -845.878
710.869;  253.444; -277.068; -366.878
711.135;  -77.654; -715.067; -628.879
711.400;  -94.102; -507.067; -608.879
711.665;  -55.526; -404.067; -479.879
711.931; -103.724; -661.067; -677.880
712.196; -117.472; -876.067; -954.880
712.461;   63.730; -402.066; -490.880
712.726;   78.406; -727.066; -771.881
712.991;  -95.692; -647.066; -664.881
713.256;  -45.690; -350.066; -332.882
713.521;  -65.639; -417.065; -381.882
713.787;  -58.512; -454.065; -472.882
714.052;  -30.335; -214.065; -400.883
714.317;  -85.933;-1045.065; -981.883
714.581; 1063.418; -374.065; -268.883
714.846; 1447.020; -822.064; -888.884
715.111;  129.647;  261.936;  257.116
715.376;  -24.427;  -86.064; -223.885
715.641;  -24.775; -365.064; -367.885
715.906;  204.802;   15.936; -551.885
716.171;   90.704;  221.937;  209.114
716.436;    9.080;  -78.063; -104.886
716.700; -102.693; -818.063; -692.886
716.965; -126.866; -794.063; -807.887
717.230;  -77.390; -339.063; -392.887
717.494;  -23.213;  -40.062; -134.888
717.759; -118.061; -784.062; -640.888
718.024;    1.540;  269.938;  250.112
718.288;   81.517;  685.938;  395.111
718.553; -138.706; -803.062; -977.889
718.817; -146.204; -883.061; -899.889
719.082;  -27.553; -115.061; -125.890
719.346; -142.726;-1000.061; -947.890
719.611;  -47.299; -300.061; -255.891
719.875; -111.873; -568.060; -537.891
720.140;  -73.871; -453.060; -603.891
720.404;    9.456; -136.060; -249.892
720.668;  607.533; -475.060; -411.892
720.933;  237.659;  146.940;  137.108
721.197;  -96.464; -667.059; -600.893
721.461; -139.512; -851.059; -826.893
721.725;  -18.811;  -21.059; -250.894
721.990;  -54.034; -284.059; -204.894
722.254;  -28.707;  -26.059; -108.894
722.518;  -75.505; -286.058; -442.895
722.782;  -97.079; -743.058; -594.895
723.046;   96.473;  614.942;  570.105
723.310;   19.025;  374.942;  210.104
723.574; -110.099; -654.058; -614.896
723.838;  -89.622; -576.057; -642.897
724.102;  -54.370; -226.057; -239.897
724.366; -130.743;-1032.057; -978.897
724.630; -109.942; -749.057; -571.898
724.894;  -77.615; -722.057; -514.898
725.158;  -20.513;   38.944; -295.898
725.422;  -44.987; -394.056; -327.899
725.685;  -65.810; -441.056; -349.899
725.949;  -79.383; -566.056; -519.900
726.213;  -87.832; -732.056; -811.900
726.477;   93.270;-1020.055; -933.900
726.740;  106.847; -274.055; -104.901
727.004;  301.499; -384.055; -510.901
727.268; 3282.325; -442.055; -400.901
727.531;  904.802; -961.055; -775.902
727.795;  -52.796; -713.054; -673.902
728.059;  -77.570; -552.054; -557.903
728.322;  -95.368; -841.054; -669.903
728.586;   -0.966; -692.054; -701.903
728.849;  -99.389; -695.053; -756.904
729.112; -117.988; -812.053; -912.904
729.376; -123.936; -959.053; -905.904
729.639;  -81.059; -536.053; -536.905
729.903; -114.308; -733.053; -699.905
730.166;  -54.456; -437.052; -399.906
730.429;  -28.179; -317.052; -468.906
730.693;  -68.502; -355.052; -894.906
730.956;  172.674;  810.948;  651.093
731.219;  548.101; -310.052; -103.907
731.482;   50.553;-1003.051; -894.907
731.745;   34.829; -794.051; -935.908
732.009;   13.706;  -30.051;   50.092
732.272;  -97.017; -904.051; -771.909
732.535;  -55.365; -300.051; -310.909
732.798; -164.214;-1083.050;-1166.909
733.061;  -70.587; -430.050; -456.910
733.324;   -0.835;   31.950; -180.910
733.587;   52.366;  290.950;  365.090
733.850;  -73.582; -973.049;-1050.911
734.113;    9.095;   33.951;   32.089
734.376;   -9.704; -328.049; -447.912
734.639;  192.298; 1188.951; 1011.088
734.901;   50.300; -180.049; -402.912
735.164;  371.852; -883.048; -837.913
735.427; 1030.253; -166.048; -355.913
735.690;   76.555; -205.048; -234.913
735.952;  -47.393; -923.048; -925.914
736.215;  -57.092;-1113.048;-1009.914
736.478;    6.885; -771.047; -774.915
736.740;  168.062;   33.953;  129.085
737.003;  508.114; -658.047; -672.915
737.266; 3138.590;  -94.047;   46.084
737.528;  331.842; -682.047; -660.916
737.791;  263.044; -316.046; -327.916
738.053;  750.920;  465.954;  649.083
738.316; 9863.697; -162.046; -136.917
738.578; 6969.474; -770.046; -736.918
738.841;  370.376; -382.046; -446.918
739.103;  131.127; -875.045; -777.918
739.365;  408.129;   79.955;  -69.919
739.628;  -17.094; -884.045; -805.919
739.890;  -49.468; -758.045; -710.919
740.152;  -47.966; -692.044; -754.920
740.414;  -31.564; -408.044; -359.920
740.677;  -62.987; -785.044; -634.921
740.939;  -54.386; -587.044; -487.921
741.201;  172.566; -432.044; -572.921
741.463;    7.768; -689.043; -745.922
741.725;   22.819;  -21.043; -199.922
741.987;   34.721;  220.957;  116.078
742.249;  -20.852; -751.043; -859.923
742.511;  130.274; -703.043; -794.923
742.773;   -9.774; -546.042; -546.924
743.035;  120.278;  796.958;  533.076
743.297;  -70.195; -963.042;-1013.924
743.559;  580.106; -278.042; -262.925
743.821;   24.858; -735.042; -744.925
744.083;   -9.215;  -44.041; -149.925
744.345;  -98.189; -869.041; -892.926
744.607;   26.338;   75.959;  122.074
744.868;  -40.585; -490.041; -554.927
745.130; -113.558; -994.041;-1008.927
745.392;   18.318;   -1.040;  -44.927
745.653;  -32.955; -411.040; -378.928
745.915;  145.847;  896.960;  631.072
746.177;   34.023;   35.960;  -43.928
746.438;   -9.575; -428.040; -543.929
746.700;  -56.273; -947.039; -988.929
746.961;   -5.321; -659.039; -740.930
747.223;  105.655; -190.039;  -74.930
747.484;   49.657; -391.039; -471.930
747.746;  119.709;  -23.038; -106.931
748.007;   75.685; -647.038; -689.931
748.269;  229.212; -468.038; -440.931
748.530;  384.864; -852.038; -638.932
748.791;  199.291; -354.038; -420.932
749.053;  364.742;  286.963;  163.067
749.314;  365.444; -236.037; -169.933
749.575;  410.996; -945.037; -905.933
749.836;  718.947; -217.037;   86.066
750.098; 2053.074;  -60.037;  -21.934
750.359;30830.501;  414.964;  555.066
750.620; 7964.102; -121.036; -220.935
750.881;  865.404; -585.036; -513.935
751.142; 1132.956; -950.036; -938.936
751.403;15166.708; -789.036; -705.936
751.664; 6755.334;-1034.035; -999.936
751.925;  438.936; -175.035; -262.937
752.186;  233.213; -298.035; -278.937
752.447;   79.314; -590.035; -445.937
752.708;   34.591; -532.035; -648.938
752.969;  -22.432; -566.034; -576.938
753.230;  -35.980; -777.034; -672.939
753.491;   -5.779; -650.034; -631.939
753.751;   55.773;  109.966;   19.061
754.012;   81.350;  258.967;  181.060
754.273;   37.601; -174.033;  -71.940
754.534;  -14.197; -487.033; -580.940
754.794;  -95.570; -926.033; -911.941
755.055;  144.232; 1051.967;  881.059
755.316;  -50.892; -700.032; -566.942
755.576;  -41.840; -606.032; -576.942
755.837;  -62.063; -527.032; -695.942
756.097;  -44.387; -530.032; -564.943
756.358;  -87.785; -725.032; -770.943
756.618;  -66.608; -705.031; -641.943
756.879;   -5.281; -254.031; -349.944
757.139; -130.280;-1098.031;-1116.944
757.400;  -65.603; -538.031; -553.945
757.660;  -38.751; -365.031; -401.945
757.920;   -3.875; -266.030; -228.945
758.181;  -27.998; -468.030; -351.946
758.441; -103.171; -870.030; -809.946
758.701;  -40.569; -308.030; -215.946
758.961;  -13.218; -220.030; -278.947
759.222;  -51.291; -574.029; -502.947
759.482;  -89.364; -683.029; -723.948
759.742;  -90.888; -706.029; -547.948
760.002;    0.864;  -83.029; -143.948
760.262;   12.316;   50.972;  182.051
760.522;  -54.783; -498.028; -574.949
760.782;  -70.481; -738.028; -612.949
761.042;  -33.304; -618.028; -573.950
761.302;   25.823;   55.972;  -18.950
761.562;   51.149; -164.027; -154.951
761.822;   39.501; -710.027; -551.951
762.082;  -54.747;-1104.027;-1093.951
762.342;   43.054; -328.027; -403.952
762.601;   72.206; -567.027; -506.952
762.861;  284.258; -281.026; -207.952
763.121;  374.060; -406.026; -411.953
763.381; 6812.786; -499.026; -485.953
763.640; 7633.313; -139.026; -307.954
763.900;  338.065; -242.026; -203.954
764.160;   80.841; -458.025; -491.954
764.419;  -26.432; -726.025; -782.955
764.679;  -76.205; -795.025; -726.955
764.939;  -13.703; -124.025; -210.955
765.198;  -77.677; -608.025; -563.956
765.458;  -96.650; -710.024; -612.956
765.717;  -81.323; -454.024; -590.957
765.976;  -52.597; -428.024; -411.957
766.236;  -78.420; -475.024; -610.957
766.495;   13.882;  260.977;   73.042
766.755; -106.291;-1090.023; -987.958
767.014;  -16.515; -594.023; -665.958
767.273;  -60.188; -373.023; -397.959
767.533;  -53.411; -228.023; -307.959
767.792;  -26.235; -151.022; -188.960
768.051;  -52.758; -228.022; -276.960
768.310;  -78.956; -546.022; -650.960
768.569;  -24.205; -161.022;    4.039
768.828;  -32.153; -285.022; -363.961
769.088; -136.626;-1050.021; -942.961
769.347;  -83.499; -755.021; -599.962
769.606; -120.348; -876.021; -857.962
769.865; -125.446;-1016.021;-1033.963
770.124;   -5.544; -411.021; -336.963
770.383;  -54.168; -778.020; -910.963
770.641;   -2.791; -398.020; -400.964
770.900;  -56.089; -953.020; -846.964
771.159;  -45.587; -851.020; -951.964
771.418;    0.989; -917.020; -779.965
771.677;  142.141; -224.019; -293.965
771.936;  156.693; -794.019; -865.966
772.194; 2357.519; -465.019; -437.966
772.453;11325.071; -213.019; -391.966
772.712;  794.823;  416.982;  329.033
772.970;  118.500;   32.982;   63.033
773.229;   75.751;  -22.018;  102.033
773.488;  -81.997; -814.018; -770.968
773.746;   44.705;  296.982;  335.032
774.005;   13.781;  190.983;  -22.969
774.263;   -5.842;  243.983;  177.031
774.522;  -40.915; -422.017; -548.969
774.780;  -91.538; -484.017; -417.970
775.039;  -87.712; -551.017; -531.970
775.297;  -39.560; -135.016; -351.970
775.555; -104.183; -489.016; -612.971
775.814; -117.107; -618.016; -570.971
776.072; -132.880; -749.016; -740.971
776.330; -107.953; -630.016; -520.972
776.589; -121.552; -703.015; -721.972
776.847; -141.075; -645.015; -624.973
777.105; -177.773;-1016.015;-1032.973
777.363;  -90.821; -459.015; -454.973
777.621; -136.820; -660.015; -717.974
777.879;  -23.818;  -42.014;   32.026
778.138; -101.166; -554.014; -717.974
778.396; -107.465; -585.014; -526.975
778.654; -169.313;-1015.014; -970.975
778.912;  -71.361; -269.014; -371.976
779.170; -132.409; -880.013; -803.976
779.427; -148.583; -922.013; -897.976
779.685; -138.456; -880.013; -832.977
779.943; -101.029; -654.013; -593.977
780.201; -155.953; -964.012; -883.978
780.459; -117.701; -651.012; -610.978
780.717;  -86.049; -440.012; -390.978
780.974; -101.472; -449.012; -490.979
781.232;  -71.921; -358.012; -338.979
781.490; -100.119; -551.011; -472.979
781.747; -104.442; -555.011; -476.980
782.005;   10.109;  462.989;  254.020
782.263; -174.514; -542.011;-1004.981
782.520;  -91.812; -326.011; -501.981
782.778; -164.885;-1013.010;-1051.981
783.035; -176.584; -962.010; -938.982
783.293;  -51.657; -248.010; -206.982
783.550;  -68.305; -134.010; -198.982
783.808; -135.204; -764.010; -776.983
784.065; -160.952; -745.009; -874.983
784.322;  -39.550;   25.991;  -86.984
784.580; -151.349; -915.009; -771.984
784.837;  -94.647; -392.009; -466.984
785.094; -135.320; -783.009; -762.985
785.352;  -68.643; -304.008; -404.985
785.609; -133.767; -934.008; -839.985
785.866;  -76.015; -345.008; -401.986
786.123;  -90.538; -639.008; -583.986
786.380; -120.362; -665.008; -604.987
786.637;  -58.560; -225.007; -380.987
786.895;  -38.858; -456.007; -543.987
787.152;  -36.556; -135.007; -267.988
787.409;  -43.905; -123.007; -225.988
787.666;  -89.703; -299.006; -378.988
787.923; -107.026; -616.006; -695.989
788.179; -109.950; -551.006; -584.989
788.436; -116.323; -585.006; -585.990
788.693;  -43.146;  -92.006;  -87.990
788.950;   85.481; -125.005; -112.990
789.207;  122.907; -381.005; -372.991
789.464;  -47.491; -161.005; -301.991
789.720;  -21.464;  150.995;  110.009
789.977; -167.063;-1003.005; -671.992
790.234;  -43.861;   44.996;  -66.992
790.490; -153.709; -884.004;-1031.993
790.747;  -27.782;  -85.004;   22.007
791.004;  -35.856; -426.004; -348.993
791.260; -107.479; -430.004; -560.994
791.517;  -95.302; -843.003; -788.994
791.773;  -76.851; -379.003; -342.994
792.030; -107.549; -596.003; -660.995
792.286; -111.997; -686.003; -636.995
792.543;  -20.021;  -74.002; -159.995
792.799;  -60.394; -584.002; -382.996
793.055; -152.992;-1179.002;-1210.996
793.312; -112.190; -827.002; -816.997
793.568;  -68.414; -746.002; -599.997
793.824;  -10.987; -226.001; -284.997
794.081;   16.840; -447.001; -508.998
794.337;   40.991; -664.001; -561.998
794.593; 1134.343; -319.001; -271.999
794.849; 5854.245; -746.001; -772.999
795.105;  284.622; -270.000; -261.999
795.361;    6.873; -490.000; -457.000
795.617;  -79.600; -875.000; -945.000
795.873;  -60.750; -360.000; -407.000
796.129;  -39.775; -368.000; -306.000
796.385;  -28.300; -124.000; -156.000
796.641;   54.225;  412.000;  550.000
796.897;  -84.950; -666.000; -635.000
797.153;   67.850;  453.000;  357.000
797.409;  -97.325; -785.000; -868.000
797.665;  -76.550; -625.000; -732.000
797.921;  -95.425; -775.000; -762.000
798.176;  -63.550; -744.000; -747.000
798.432;  -58.725; -824.000; -596.000
798.688;  -83.475;-1174.000;-1078.000
798.943;   68.350; -165.000; -147.000
799.199;    0.650;-1005.000; -959.000
799.455;  223.025;  369.000;  316.000
799.710;  122.000; -813.000; -380.000
799.966;  278.425; -162.000; -160.000
800.221;  465.800; -638.000; -721.000
800.477; 9713.625; -743.000; -710.000
800.732; 8774.950; -773.000; -800.000
800.988;  638.600;  205.000;  -19.000
801.243; 2002.125; -454.000; -344.000
801.498; 9029.900; -814.000; -739.000
801.754;  513.225; -289.000; -163.000
802.009;   93.625; -257.000; -335.000
802.264;  -44.850; -967.000;-1033.000
802.520;   16.600;  222.000;   -3.000
802.775;  -47.875; -524.000; -359.000
803.030;   56.175;  395.000;  356.000
803.285; -104.475; -840.000; -903.000
803.540;  -64.350; -686.000; -699.000
803.795;  -66.700; -648.000; -583.000
804.051;  -54.550; -279.000; -346.000
804.306;   14.375;  168.000;  128.000
804.561;  102.025;  451.000;  362.000
804.816;  138.800;  714.000;  861.000
805.071;  -17.225; -185.000; -280.000
805.325;  141.625; -257.000; -427.000
805.580; -110.400; -841.000; -877.000
805.835;  -15.200; -204.000; -297.000
806.090;  -83.550; -760.000; -676.000
806.345;  -12.150; -344.000; -264.000
806.600;  -34.925; -549.000; -632.000
806.854;  -45.125; -408.000; -538.000
807.109;  -22.325; -493.000; -577.000
807.364;    0.050; -407.000; -328.000
807.618;  -26.375; -415.000; -381.000
807.873;   22.625; -470.000; -494.000
808.128;   65.600; -257.000; -518.000
808.382;   86.425; -224.000; -332.000
808.637;   58.150; -440.000; -511.000
808.891;  152.150; -257.000; -180.000
809.146;   79.650; -902.000; -794.000
809.400;  209.000; -848.000; -923.000
809.654;  272.300; -779.000; -551.000
809.909;  398.750; -841.000; -927.000
810.163; 5484.050; -813.000; -651.000
810.418;14431.675; -940.000; -861.000
810.672;  895.375; -685.000; -690.000
810.926;  637.525; -993.000; -973.000
811.180; 1257.825; -439.000; -372.000
811.434;30167.200;  240.000;  135.000
811.689;12369.800; -231.000; -365.000
811.943;  571.775; -936.000; -953.000
812.197;  311.350; -893.000; -671.000
812.451;  106.700; -379.000; -514.000
812.705;  -24.100; -809.000; -619.000
812.959;   -1.350; -263.000; -388.000
813.213;   -8.975; -283.000; -209.000
813.467;   67.875;  470.000;  253.000
813.721; -100.825; -764.000; -792.000
813.975; -118.125; -826.000; -877.000
814.229;   36.050;  430.000;  353.000
814.482;  -70.175; -517.000; -566.000
814.736; -136.150; -766.000; -744.000
814.990; -127.675; -779.000; -872.000
815.244;  -67.575; -228.000; -285.000
815.497;  -85.525; -636.000; -601.000
815.751;  -39.525; -141.000;   82.000
816.005;  -88.250; -470.000; -586.000
816.258;  -73.450; -510.000; -363.000
816.512; -103.700; -693.000; -610.000
816.766;    3.525;  121.000;  157.000
817.019;   18.000;  148.000;  149.000
817.273; -125.100;-1000.000; -802.000
817.526;  -27.375; -206.000; -173.000
817.779;  -93.875;-1049.000; -960.000
818.033;  -96.925; -693.000; -807.000
818.286; -126.100; -725.000; -792.000
818.540;  -92.125; -403.000; -403.000
818.793;  -88.700; -402.000; -489.000
819.046; -110.550; -582.000; -520.000
819.299;  -53.900; -157.000; -166.000
819.553; -116.275; -552.000; -592.000
819.806; -173.000;-1016.000; -838.000
820.059;  -73.375; -334.000; -354.000
820.312;    1.700;  152.000;  185.000
820.565;  -14.450;  110.000;  -27.000
820.818;  -55.275;  -59.000; -173.000
821.071; -169.950;-1041.000; -957.000
821.324; -116.375; -536.000; -540.000
821.577;  -96.450; -457.000; -483.000
821.830;  -80.250; -270.000; -172.000
822.083; -131.600; -733.000; -288.000
822.336;  -62.900; -261.000; -167.000
822.589; -138.625; -805.000; -688.000
822.842; -147.975; -875.000; -770.000
823.094; -186.625;-1076.000;-1114.000
823.347; -138.550; -925.000; -729.000
823.600;   15.000;  402.000;  187.000
823.853;  -64.200; -311.000; -267.000
824.105;  -66.825; -331.000; -575.000
824.358; -116.450; -617.000; -716.000
824.611;   15.975;  234.000;   40.000
824.863;  -67.450; -612.000; -591.000
825.116;   35.850;  -33.000;   27.000
825.368;   36.275; -366.000; -372.000
825.621;  131.250; -186.000; -240.000
825.873;   69.450; -704.000; -737.000
826.126;  523.275; -669.000; -641.000
826.378;10732.325; -389.000; -505.000
826.630; 2688.675; -890.000; -898.000
826.883;   23.700; -754.000; -693.000
827.135;   45.700; -279.000; -270.000
827.387; -123.025; -893.000; -839.000
827.639;  -22.100;  -86.000;   32.000
827.892; -137.825; -742.000; -582.000
828.144; -133.600; -848.000; -804.000
828.396;  -42.900;  104.000;  -80.000
828.648; -107.050; -440.000; -333.000
828.900; -157.900; -702.000; -795.000
829.152; -127.850; -684.000; -683.000
829.404;  -84.450; -215.000; -267.000
829.656;  -51.600;  321.000;  214.000
829.908;  -17.125;  393.000;  229.000
830.160; -171.050;-1064.000;-1047.000
830.412; -100.600; -481.000; -430.000
830.664; -126.175; -557.000; -665.000
830.916;  -77.325; -268.000; -206.000
831.167; -176.225;-1073.000; -951.000
831.419; -119.725; -623.000; -566.000
831.671; -151.825; -764.000; -809.000
831.923;  -87.000; -311.000; -447.000
832.174;  -77.450; -273.000; -331.000
832.426; -117.850; -493.000; -582.000
832.678; -186.250;-1043.000;-1091.000
832.929; -170.075; -947.000; -935.000
833.181;  -77.875; -575.000; -677.000
833.432;  -61.000;  -59.000; -186.000
833.684;  -34.500;  112.000;  -27.000
833.935; -128.175; -610.000; -566.000
834.187; -118.200; -829.000; -823.000
834.438;  -54.325;  -58.000;  -25.000
834.689;  -47.725; -255.000; -123.000
834.941;  -61.325; -343.000; -244.000
835.192;  -91.625; -590.000; -533.000
835.443; -115.000; -419.000; -506.000
835.695;  -33.425;  138.000;  -16.000
835.946; -101.425; -608.000; -378.000
836.197; -103.325; -599.000; -622.000
836.448; -103.250; -528.000; -395.000
836.699;  -60.100; -253.000; -341.000
836.950;  -10.025;   72.000;    7.000
837.201; -148.225;-1003.000; -987.000
837.452;  -64.400; -356.000; -170.000
837.703; -106.800; -791.000; -737.000
837.954;  -44.800; -205.000; -365.000
838.205; -109.175;-1029.000;-1008.000
838.456;  119.950; -196.000; -282.000
838.707;   -7.650; -423.000; -519.000
838.958;  -14.275; -634.000; -647.000
839.209;  218.350;   18.000;   40.000
839.460;   96.775; -439.000; -201.000
839.710;  143.575; -135.000; -297.000
839.961;  376.650;  730.000;  612.000
840.212;  307.825; -382.000; -497.000
840.462; 1040.750; -328.000; -277.000
840.713;16981.375; -571.000; -536.000
840.964; 7008.400;  -62.000; -143.000
841.214;  436.725; -384.000; -624.000
841.465;  465.625; -214.000; -141.000
841.715;  413.050; -417.000; -380.000
841.966;  482.500; -746.000; -685.000
842.216; 7198.950; -330.000; -431.000
842.466;28285.975; -169.000; -313.000
842.717; 1585.550; -964.000; -952.000
842.967;  243.875; -635.000; -641.000
843.217;  225.250;   20.000;   28.000
843.468;   34.350; -104.000; -132.000
843.718;  -52.750; -718.000; -726.000
843.968; -117.525; -837.000; -765.000
844.218;  -11.625; -315.000; -262.000
844.469;  -60.725; -577.000; -561.000
844.719; -105.075; -537.000; -682.000
844.969; -120.750; -550.000; -580.000
845.219; -156.875; -814.000; -862.000
845.469;  -90.425; -392.000; -342.000
845.719; -139.775; -792.000; -884.000
845.969;  -29.700;  119.000;  174.000
846.219; -131.100; -738.000; -720.000
846.469;   11.950;  464.000;  432.000
846.718;  -58.300; -115.000;   31.000
846.968; -138.275; -827.000; -827.000
847.218;  -56.075; -224.000; -371.000
847.468;    3.100; -586.000; -555.000
847.718; -152.350; -827.000; -798.000
847.967; -152.650; -826.000; -915.000
848.217;  -90.825; -449.000; -569.000
848.467;  -76.650; -405.000; -376.000
848.716; -124.550; -708.000; -725.000
848.966;  -32.175; -372.000; -358.000
849.215;  -72.650; -428.000; -419.000
849.465; -110.300; -785.000; -615.000
849.714; -163.650;-1132.000;-1150.000
849.964;  -73.050; -551.000; -613.000
850.213;  -16.975; -393.000; -355.000
850.463;   68.150;  137.000;  340.000
850.712;  -11.375; -542.000; -567.000
850.961;    8.175; -739.000; -678.000
851.211;   93.950; -513.000; -504.000
851.460;  133.800; -635.000; -650.000
851.709;  525.450;  -25.000;   18.000
851.958; 9551.050; -912.000; -750.000
852.208;12087.175; -859.000; -879.000
852.457;  437.400; -181.000;  -13.000
852.706;   62.700; -791.000; -823.000
852.955;   -1.475; -507.000; -528.000
853.204;  -81.500; -521.000; -461.000
853.453;  -85.300; -418.000; -458.000
853.702; -133.250; -660.000; -750.000
853.951; -106.175; -532.000; -520.000
854.200; -128.075; -613.000; -562.000
854.449; -148.925; -695.000; -661.000
854.698;  -94.425; -340.000; -279.000
854.946;  -72.875; -181.000; -284.000
855.195; -154.800; -843.000; -868.000
855.444; -105.225; -395.000; -420.000
855.693; -122.350; -345.000; -432.000
855.941; -122.525; -387.000; -516.000
856.190;  -64.150; -256.000; -382.000
856.439; -138.725; -652.000; -703.000
856.687;  -75.875;  -99.000;  -72.000
856.936; -137.300; -621.000; -323.000
857.184; -180.550;-1067.000;-1020.000
857.433; -111.775; -423.000; -512.000
857.681; -161.650; -989.000; -953.000
857.930;  -90.475; -282.000; -433.000
858.178; -169.125; -856.000; -929.000
858.427; -152.425; -802.000; -781.000
858.675; -115.525; -377.000; -544.000
858.923; -121.575; -527.000; -819.000
859.172; -180.150;-1094.000;-1070.000
859.420;  -96.900; -339.000; -239.000
859.668; -138.600; -624.000; -628.000
859.916;  -37.600;  109.000;  115.000
860.164; -123.175; -699.000; -603.000
860.413;  162.375; -878.000; -696.000
860.661;  112.600; -709.000; -577.000
860.909; -103.225; -339.000; -325.000
861.157;  -97.550; -277.000; -444.000
861.405; -138.100; -534.000; -670.000
861.653;    4.750;  310.000;  310.000
861.901;   79.450; -543.000; -613.000
862.149;  -43.475; -801.000; -824.000
862.396;  -83.825; -297.000; -187.000
862.644;  -94.800; -368.000; -347.000
862.892;  -42.275;   98.000;  138.000
863.140; -118.975; -549.000; -530.000
863.388; -165.200; -815.000; -759.000
863.635; -127.925; -642.000; -601.000
863.883;  -18.100;  231.000;  190.000
864.131; -103.325; -288.000; -357.000
864.378; -129.475; -675.000; -540.000
864.626; -110.200; -347.000; -415.000
864.873; -112.750; -556.000; -505.000
865.121; -139.450; -714.000; -799.000
865.368;  -58.975; -173.000;   75.000
865.616;  -39.200;  -33.000;  -40.000
865.863;  -70.600; -462.000; -506.000
866.111; -104.875; -795.000; -824.000
866.358;   56.625; -426.000; -420.000
866.605; 2659.000;  -64.000; -804.000
866.853; 2803.275; -621.000; -537.000
867.100;  -10.700; -728.000; -775.000
867.347;  -97.125; -672.000; -611.000
867.594;  -96.000; -740.000; -714.000
867.841;   44.250;   97.000;   17.000
868.089; -150.675; -746.000; -698.000
868.336; -111.925; -477.000; -420.000
868.583; -138.875; -637.000; -741.000
868.830;  -59.425; -131.000; -170.000
869.077; -160.725; -859.000; -787.000
869.324; -138.450; -502.000; -458.000
869.571; -126.950; -398.000; -430.000
869.818; -128.475; -485.000; -439.000
870.065; -105.925; -439.000; -513.000
870.311; -115.750; -456.000; -542.000
870.558; -106.250; -332.000; -311.000
870.805; -101.500; -320.000; -384.000
871.052; -107.675; -494.000; -369.000
871.298;  -80.125; -204.000; -131.000
871.545;  -63.675; -151.000; -185.000
871.792;  -94.700; -173.000; -222.000
872.038;  -61.025;   43.000; -126.000
872.285; -132.325; -496.000; -387.000
872.532; -106.850; -357.000; -387.000
872.778;   -5.150;  556.000;  403.000
873.025;  -98.900; -384.000; -359.000
873.271;   -2.475;  501.000;  578.000
873.517;  -48.975; -133.000; -209.000
873.764;  -52.650; -193.000;  -80.000
874.010;  -84.200; -143.000; -230.000
874.257;  -47.375;  123.000;   90.000
874.503; -123.125; -579.000; -479.000
874.749;  -77.300;   31.000;  275.000
874.995;  -78.950;  -80.000;  -20.000
875.242; -123.825; -540.000; -478.000
875.488; -113.500; -414.000; -439.000
875.734;  -68.825; -106.000; -234.000
875.980;   82.050; -872.000;-1032.000
876.226;  233.750; -157.000; -255.000
876.472;  -12.150;  343.000;  237.000
876.718;  -44.850;  184.000;  158.000
876.964;  -44.200;   56.000;   55.000
877.210; -144.200; -547.000; -677.000
877.456; -151.625; -630.000; -557.000
877.702; -188.725; -821.000; -832.000
877.948; -121.425; -377.000; -497.000
878.193;    1.500;  361.000;  255.000
878.439; -105.400; -487.000; -472.000
878.685; -103.450; -272.000; -343.000
878.931; -131.850; -618.000; -676.000
879.176;  -90.725; -201.000; -201.000
879.422; -184.700; -933.000; -820.000
879.668;   -5.825;   10.000;   79.000
879.913;   83.850;   53.000;  137.000
880.159;  -60.525; -112.000;  -17.000
880.404;  -76.950; -152.000; -162.000
880.650;  -58.175;   91.000;  141.000
880.895; -161.225; -670.000; -710.000
881.141; -116.200; -454.000; -428.000
881.386; -153.000; -503.000; -658.000
881.631;  -92.425; -311.000; -166.000
881.877;  -37.200;  112.000;  -13.000
882.122; -141.725; -684.000; -600.000
882.367;  -84.975; -136.000; -186.000
882.612;  -88.175;  -80.000; -176.000
882.858; -162.900; -877.000; -823.000
883.103;  -99.100; -297.000; -267.000
883.348; -157.550; -759.000; -852.000
883.593; -148.900; -677.000; -602.000
883.838;  -69.850; -311.000;  -24.000
884.083;    4.750;  353.000;  288.000
884.328;  -94.525; -564.000; -545.000
884.573;  -70.550; -196.000; -143.000
884.818;   88.725; -694.000; -531.000
885.063;   92.600; -348.000; -315.000
885.308; -101.400; -475.000; -398.000
885.553;  -37.650;  245.000;  325.000
885.797; -125.000; -545.000; -615.000
886.042;  -71.400;    8.000;   58.000
886.287;  -91.375; -253.000; -211.000
886.532;  -56.375;   26.000;  204.000
886.776; -104.150; -407.000; -525.000
887.021; -152.225; -621.000; -574.000
887.265; -150.425; -685.000; -689.000
887.510; -126.700; -557.000; -496.000
887.755;  -87.375; -194.000; -164.000
887.999; -152.300; -552.000; -575.000
888.244;  -55.650;  -58.000;  161.000
888.488;  -29.250;  371.000;  393.000
888.732; -134.150; -368.000; -520.000
888.977; -130.975; -622.000; -567.000
889.221; -167.375; -683.000; -659.000
889.465; -131.875; -422.000; -566.000
889.710;  -89.500;  -56.000; -299.000
889.954;   -6.775;  579.000;  467.000
890.198; -154.900; -584.000; -707.000
890.442; -171.650; -716.000; -712.000
890.687; -161.775; -800.000; -753.000
890.931;  -94.000; -273.000; -210.000
891.175; -130.175; -502.000; -500.000
891.419;  -76.025; -105.000; -110.000
891.663;  -85.650; -239.000; -112.000
891.907; -178.100; -801.000; -545.000
892.151; -189.975; -920.000; -815.000
892.395; -119.575; -274.000; -387.000
892.638;  -20.325;  408.000;  291.000
892.882; -182.525; -780.000; -867.000
893.126;   17.975;  758.000;  558.000
893.370; -107.300; -167.000; -168.000
893.614; -147.475; -714.000; -715.000
893.857; -124.150; -183.000; -197.000
894.101; -141.875; -527.000; -631.000
894.345;  -62.350;  300.000;  150.000
894.588;   10.150;  569.000;  380.000
894.832;  -87.250; -178.000;  -84.000
895.075;  -84.000;   15.000;  -92.000
895.319; -138.025; -552.000; -420.000
895.563; -116.750; -413.000; -353.000
895.806; -157.075; -628.000; -741.000
896.049;  -81.875; -576.000; -368.000
896.293;   46.625;  527.000;  405.000
896.536;  -85.350; -465.000; -468.000
896.779;  -89.575; -149.000;   -1.000
897.023; -155.525; -751.000; -714.000
897.266;  -40.700;  325.000;  269.000
897.509; -176.925; -900.000; -901.000
897.752;  -42.900;  149.000;  171.000
897.996; -185.700; -972.000; -864.000
898.239;  -60.175;  168.000;  102.000
898.482; -131.075; -431.000; -453.000
898.725;  -40.050;  101.000;   53.000
898.968; -155.975; -609.000; -744.000
899.211; -128.050; -513.000; -361.000
899.454; -137.300; -633.000; -539.000
899.697;  -92.050;   90.000;  -43.000
899.940; -170.575; -761.000; -757.000
900.182; -110.050; -335.000; -405.000
900.425; -103.125; -150.000; -298.000
900.668;  -21.200;  491.000;  350.000
900.911;  -99.375; -292.000; -345.000
901.154;  -60.400;  141.000;   -3.000
901.396; -129.525; -407.000; -412.000
901.639; -137.200; -430.000; -496.000
901.882; -184.750; -790.000; -809.000
902.124;  -87.975;  -29.000; -143.000
902.367; -108.675; -315.000; -361.000
902.609; -136.275; -476.000; -453.000
902.852;  -89.125; -108.000; -260.000
903.094; -135.100; -458.000; -337.000
903.337;  -61.575;  -26.000;   53.000
903.579; -105.775; -228.000; -441.000
903.821; -169.350; -597.000; -744.000
904.064;  -66.175;   85.000;  127.000
904.306; -101.725; -126.000; -166.000
904.548; -117.150; -152.000; -366.000
904.790;  -99.775; -195.000; -340.000
905.033; -145.100; -625.000; -577.000
905.275; -127.400; -513.000; -524.000
905.517;   28.775;  468.000;  256.000
905.759;  -94.300; -667.000; -761.000
906.001; -119.500; -322.000; -369.000
906.243;  -76.000; -162.000; -224.000
906.485;   64.000; -265.000; -207.000
906.727;   27.350; -499.000; -542.000
906.969;  -58.100;  -30.000; -135.000
907.211;   60.675; -316.000; -382.000
907.453;  159.275; -188.000; -237.000
907.695;  -13.000; -158.000; -385.000
907.936;   37.150;  818.000;  706.000
908.178;  -52.475;   92.000; -135.000
908.420;  -78.950; -111.000; -162.000
908.662; -147.525; -633.000; -682.000
908.903;  -86.925; -208.000; -123.000
909.145;  -80.125; -240.000; -305.000
909.386;   -7.125;  315.000;  280.000
909.628;   20.025;  363.000;  397.000
909.870;   -9.925;   29.000;  264.000
910.111; -105.775; -809.000; -949.000
910.353;   -5.100; -123.000; -161.000
910.594;   -5.075; -574.000; -606.000
910.835;   70.525; -265.000; -326.000
911.077;  128.025; -503.000; -604.000
911.318;  269.125; -505.000; -471.000
911.559;  444.000; -577.000; -880.000
911.801; 1269.425; -284.000; -280.000
912.042; 9847.575;  -50.000; -159.000
912.283;25670.975;  404.000;  371.000
912.524; 4004.700; -396.000; -457.000
912.765;  436.900; -193.000;   79.000
913.006;  233.075; -307.000; -338.000
913.247;   36.150; -270.000; -290.000
913.488;  -11.775;  -43.000;   30.000
913.729; -106.825; -373.000; -373.000
913.970;  -69.600;  -96.000; -292.000
914.211;  -84.575; -160.000; -198.000
914.452;  -67.800; -118.000;  -11.000
914.693;    7.325;  510.000;  592.000
914.934;    7.575;  510.000;  440.000
915.175;  -66.575;   53.000;  -95.000
915.415;  -86.275; -137.000;   27.000
915.656;  -69.350;  -28.000;  192.000
915.897;  -95.475; -252.000;  -82.000
916.137;  -82.025;   74.000;   -9.000
916.378; -129.200; -573.000; -517.000
916.619;  -99.125; -159.000;  -63.000
916.859;  -19.300;  303.000;  330.000
917.100;  131.825; 1655.000; 1070.000
917.340;   41.575;  930.000;  728.000
917.581;   31.700;  965.000;  789.000
917.821;  -62.650; -171.000;  143.000
918.061;  -25.850; -199.000;  -72.000
918.302;  -59.125; -152.000; -211.000
918.542;  -41.625;  -22.000;    3.000
918.782;   32.300;  369.000;  377.000
919.023;   95.825;  360.000;  427.000
919.263; 1614.875; 8131.000;  202.000
919.503;  937.575; -137.000;  -54.000
919.743;  472.450;  390.000;  266.000
919.983;  183.150; -134.000;  -26.000
920.223;   66.375;  135.000;   14.000
920.463;  118.450;  631.000;  554.000
920.703;  126.225;   84.000;   39.000
920.943;  160.900; -110.000;   90.000
921.183;  232.725; -414.000; -405.000
921.423;  504.425;  307.000;  546.000
921.663;  724.775; -174.000; -257.000
921.903; 1543.025;  237.000;  173.000
922.143; 8710.150;  372.000;  389.000
922.383;33980.300;  158.000;  115.000
922.622;11681.325; -120.000;  -15.000
922.862; 1261.225;  796.000;  785.000
923.102;  461.450;  -51.000;   33.000
923.341;  194.200;   59.000;   74.000
923.581;   81.000;  450.000;  360.000
923.821;   15.800;  301.000;  398.000
924.060;   10.525;  351.000;  193.000
924.300;  -74.825;  -16.000; -128.000
924.539;  -15.725;  584.000;  473.000
924.779;    0.050;  812.000;  597.000
925.018;  -55.050;  247.000;  353.000
925.257;   -8.200;  595.000;  666.000
925.497;  -35.225;  447.000;  412.000
925.736;  -86.175;  -35.000;  102.000
925.975;   -4.550;  687.000;  669.000
926.214;   15.100;  907.000;  850.000
926.454;   22.900;  706.000;  757.000
926.693;  -26.525;  419.000;  543.000
926.932;   41.650; 1021.000;  825.000
927.171;   69.625; 1107.000; 1044.000
927.410;   62.600; 1144.000;  967.000
927.649;   16.250;  924.000;  742.000
927.888;  -16.175;  590.000;  564.000
928.127;  -15.100;  680.000;  678.000
928.366;   30.525;  842.000;  826.000
928.605;   38.650;  831.000;  737.000
928.844;  206.500; 1451.000; 1393.000
929.083;  510.925;  770.000;  613.000
929.321;  277.900; 1335.000; 1359.000
929.560;   92.200; 1158.000; 1122.000
929.799;  -24.300;  574.000;  475.000
930.038;   57.600; 1025.000; 1394.000
930.276;  -42.450;  334.000;  397.000
930.515;  -11.600;  827.000;  681.000
930.753;   -6.650;  614.000;  589.000
930.992;  -13.700;  664.000;  717.000
931.230;    6.625;  847.000;  847.000
931.469;  168.400; 2162.000;  892.000
931.707;   69.050;  840.000;  751.000
931.946;   43.650; 1278.000; 1344.000
932.184;   51.425; 1437.000; 1175.000
932.423;   36.650; 1265.000;  963.000
932.661;   76.050; 1296.000; 1428.000
932.899;    8.775;  987.000;  821.000
933.137;    2.825;  754.000;  564.000
933.376;  115.275; 1664.000; 1335.000
933.614;  156.200; 1759.000; 1196.000
933.852;   55.400; 1357.000; 1171.000
934.090;  160.625; 1722.000; 1747.000
934.328;  110.075; 1252.000; 1457.000
934.566;  106.525; 1431.000; 1110.000
934.804;  146.075; 1263.000; 1309.000
935.042;  526.400; 1861.000; 1850.000
935.280; 2157.225; 2088.000; 2063.000
935.518; 2106.425; 2113.000; 2007.000
935.756;  421.225; 2481.000; 2316.000
935.994;  176.325; 1808.000; 1751.000
936.231;  317.375; 2890.000; 2950.000
936.469;  190.700; 2367.000; 2378.000
936.707;  150.925; 2220.000; 2167.000
936.945;  225.275; 2825.000; 2882.000
937.182;  209.900; 2679.000; 2741.000
937.420;  299.250; 3602.000; 3031.000
937.657;  377.425; 3365.000; 3478.000
937.895;  330.975; 3331.000; 3488.000
938.133;  293.125; 3540.000; 3528.000
938.370;  352.400; 3896.000; 4191.000
938.607;  389.350; 4488.000; 4205.000
938.845;  551.750; 5587.000; 5549.000
939.082;  485.400; 5387.000; 5177.000
939.320;  539.225; 5799.000; 5728.000
939.557;  645.800; 6549.000; 6491.000
939.794;  731.600; 7285.000; 7097.000
940.031;  861.975; 8421.000; 8368.000
940.269; 1064.400; 9552.000; 9107.000
940.506; 1099.925;10901.000;10507.000

