
Integration time [ms]: 100.000
Averaging Nr. [scans]: 40
Smoothing Nr. [pixels]: 0
Data measured with spectrometer [name]: 2101013U2
Wave   ;Sample   ;Dark     ;Reference
[nm]   ;[counts] ;[counts] ;[counts] 

394.013;   58.736; -450.257; -315.536
394.305;  229.134; -461.258; -419.536
394.596; 1165.653; -676.269; -527.514
394.887; 2833.645; -796.268; -654.518
395.178; 1052.827;  145.736;   11.476
395.470;   86.288; -210.263; -356.526
395.761;  216.536;  305.734;  394.479
396.052;  345.800; -545.284; -306.489
396.343;  336.422; -557.276; -454.503
396.634;   97.814; -200.279; -290.497
396.926;  114.393; -618.268; -565.517
397.217;  106.826;   11.725;  -17.504
397.508;   61.592; -366.273; -154.507
397.799;   50.764; -555.279; -571.497
398.090;   -4.616; -973.280; -902.495
398.381;  113.648;   11.708;  -11.473
398.672;   -8.001; -585.292; -742.473
398.963;   41.996; -348.279; -373.498
399.254;  117.508;   54.709; -209.475
399.545;   -9.168;-1017.266; -883.520
399.836;   69.785; -407.277; -343.501
400.127;   56.623; -205.295; -209.468
400.418;   61.362; -423.274; -392.506
400.709;   56.570; -359.281; -333.493
401.000;   43.837; -268.291; -309.476
401.290;   95.158;  225.698;  115.545
401.581;   87.532; -166.286; -228.485
401.872;   26.470; -542.298; -486.462
402.163;   55.216; -313.296; -252.467
402.454;  101.959; -123.291; -163.475
402.744;   77.182; -844.297; -813.465
403.035;  432.689; -226.293;  -86.471
403.326;  567.677; -366.292; -384.474
403.617;  391.939;  204.701;  165.539
403.907;  253.681; -593.283; -679.490
404.198; 2507.636; -545.307; -599.446
404.489; 6491.861; -618.283; -588.491
404.779; 2113.187; -618.302; -660.456
405.070;  235.915;  -67.304; -174.451
405.360;  358.041; -259.293; -238.472
405.651;  382.598;  125.699;   98.542
405.942;  180.602;  209.714;  127.516
406.232;  265.167; -432.285; -413.487
406.523;  469.234;  641.706;  758.530
406.813;  106.479; -579.286; -644.484
407.104;  335.022;  261.708;  144.527
407.394;  183.740; -604.299; -591.462
407.685;  152.916;  336.715;  222.513
407.975;   73.909; -400.283; -382.490
408.265;  119.924; -134.289; -190.478
408.556;   83.581; -472.291; -459.475
408.846;  171.709;  474.706;  429.530
409.137;   83.557;   -1.288; -216.480
409.427;   71.267; -193.285; -271.487
409.717;   40.921; -776.273; -692.508
410.007;  149.435;    4.715; -170.486
410.298;   98.851; -360.295; -342.469
410.588;   71.564; -495.285; -510.486
410.878;   46.994; -792.287; -873.482
411.168;  117.672; -481.298; -478.463
411.459;  131.554; -295.283; -242.489
411.749;   68.229; -609.292; -507.474
412.039;   72.156; -755.289; -386.480
412.329;  209.153;   40.722;  132.501
412.619;  204.130;  -62.286; -148.485
412.909;  372.302;  639.711;  594.521
413.199;  342.209; -130.280; -251.495
413.490;  406.642;  521.710;  352.523
413.780;  180.938;-1013.279; -913.496
414.070;  347.123;  -46.276;  235.497
414.360;  379.349; -729.278; -666.498
414.650;  440.590; -726.288; -688.482
414.940;  553.462; -538.280; -441.496
415.230;  951.087;   50.712;   74.519
415.520; 6300.553;  155.730;   66.486
415.809;24775.020; -305.281; -125.493
416.099;19035.188; -388.277; -229.501
416.389; 5384.759;  435.726;  236.494
416.679; 3118.967;   91.738;   85.473
416.969;  553.448; -527.287; -503.483
417.259;  488.465;  341.721;  171.503
417.549;  715.594;  522.718;  318.508
417.838; 1711.370; -205.268; -147.518
418.128; 5757.397;  650.710;  492.522
418.418; 4767.702; -491.272; -579.509
418.708; 3198.210;    9.726;  -48.506
418.997;12184.830; -474.275; -480.505
419.287;12477.467; -733.273; -790.507
419.577;11876.928; -160.283; -123.489
419.866;39399.036; -588.277; -498.501
420.156;40064.023; -242.270;  -55.513
420.446; 7110.684; -112.263;  -26.526
420.735;  884.067; -376.271; -446.512
421.025;  847.948; 1830.722;  315.502
421.314;  679.640; -203.271; -226.512
421.604; 1362.937;   89.732;  233.484
421.893;  812.111; -705.271; -602.511
422.183;  242.584; -487.263; -461.526
422.472;  411.263;  -36.271; -107.511
422.762;  465.838; -416.266; -379.521
423.051;  251.698; -916.276; -916.503
423.341;  330.919; -491.273; -439.507
423.630;  423.069; -121.265;   15.477
423.919;  376.005;   58.725;   49.495
424.209;  400.890;  -31.263;   56.473
424.498;  526.042;   68.732;  161.483
424.787; 1137.024; -535.267; -601.518
425.077; 3464.293;   34.735;   29.478
425.366; 4763.896; -734.262; -744.528
425.655;10211.794;  639.727;  259.493
425.945;22594.378; -313.247; -268.554
426.234;12363.669;  117.741;  300.467
426.523; 5229.549;  -86.259; -350.534
426.812; 7141.909;  107.734;  159.480
427.101;10575.859; -127.269; -323.515
427.390;13223.902;  -55.270;  -86.514
427.680; 2921.720; -624.257; -411.538
427.969;  465.281; -330.255; -301.540
428.258;  330.836; -385.257; -477.536
428.547;  532.156;  449.728;  397.490
428.836; 1246.122; -421.253; -398.543
429.125; 1777.376; -199.259;  -72.534
429.414;  805.421; -330.251; -294.548
429.703; 3231.496; -231.251; -213.548
429.992; 9718.224; -938.250; -828.549
430.281; 6227.402; -397.264; -331.524
430.570;  585.061;  -21.252;   32.454
430.859;  563.899;  279.741;  352.466
431.148;  452.274;  636.752;  631.446
431.437;  285.585;  391.748;  367.454
431.725;  164.688; -544.257; -481.536
432.014;  150.680; -845.253; -756.545
432.303;  400.676; -149.239; -105.569
432.592;  606.259; -460.263; -178.525
432.881; 1059.500; -601.248; -437.554
433.169; 6443.632; -343.255;  -61.540
433.458;12995.261;  445.765;  540.424
433.747; 5386.877; -397.261; -289.529
434.036;  910.752; -275.242; -280.564
434.324; 2161.387; -395.249; -379.551
434.613; 3775.795;   40.757;  159.437
434.902; 1210.441;  333.760;  439.433
435.190;  542.925;   75.761;  295.431
435.479;  302.076;  -52.245;   83.441
435.767;  112.835; -411.244; -427.561
436.056;  212.947; -340.242; -294.563
436.345;  394.519; -372.240; -223.568
436.633;  405.482;   60.750;  383.450
436.922;  256.321;  208.760;  414.432
437.210;  544.601; -194.236;    1.426
437.499; 1804.209; -583.235; -432.576
437.787; 1951.875; -339.236;  -10.574
438.075;  529.331;   56.761;  162.430
438.364;  706.984;  -44.238;  250.429
438.652;  433.891; -286.226; -138.592
438.941;  135.279;    3.770;  269.415
439.229;   12.458; -665.252; -466.545
439.517;   35.468; -160.234;  -85.577
439.806;   -4.968; -501.225; -290.595
440.094;  177.476;  377.766;  650.421
440.382;  196.255; -653.233; -302.580
440.670;  206.859; -361.235; -285.576
440.959;   27.300; -347.223; -170.599
441.247;   67.791; -151.229; -109.587
441.535;  108.891; -266.235;   31.423
441.823;   40.823; -497.234; -305.578
442.111;  195.920;  173.771;  327.412
442.400;  506.076; -628.245; -335.559
442.688; 1312.750; -111.234; -620.579
442.976;  935.265; -786.213; -450.617
443.264;   97.339; -324.224; -364.597
443.552;   98.992; -258.226;   51.408
443.840;  173.190;  602.765;  876.423
444.128;  111.654;  265.767;  269.420
444.416;   15.948; -694.228; -312.588
444.704;   32.205; -465.219;  -92.605
444.992;   84.495;   -0.226;  240.407
445.280;   45.930; -517.230;  -94.585
445.568;   44.294; -694.212; -396.618
445.856;  327.989; -174.221;  357.398
446.143;  729.176;  -54.220;   -7.604
446.431;  597.727;  -25.228;  625.411
446.719;  243.975;  489.783;  675.391
447.007;  187.324;  481.769;  705.416
447.295;  188.122;  597.777;  871.402
447.583;   90.363; -464.229;  -34.587
447.870;  157.986; -434.221; -202.601
448.158;  417.478; -104.230;  129.415
448.446;  307.303; -800.219; -338.604
448.733;  170.190;   13.776;  269.403
449.021;  271.718;   60.788;  341.382
449.309;  207.434; -296.210;  208.379
449.596;  225.421;  128.783;   59.392
449.884;  154.004; -571.222; -325.600
450.172;  200.682; -756.227; -406.590
450.459;  451.998;  645.786;  780.387
450.747; 2500.170; -411.218; -147.608
451.034; 7937.703;  493.772;  889.411
451.322; 6538.151; -413.214; -170.614
451.609;  528.317;  292.777;  508.403
451.897;  618.398; -550.203; -183.634
452.184; 1872.072; -622.223; -400.598
452.472; 1753.580;   97.792;  269.375
452.759;  346.728;  512.781;  864.395
453.047;  108.741; -407.212; -125.617
453.334;   78.811; -732.219; -216.606
453.621;   87.728; -438.214; -161.615
453.909;  119.940;   13.796;  384.368
454.196;  116.736; -299.199; -123.641
454.483;  202.536;  317.798;  540.364
454.771;  115.333; -215.208;  196.374
455.058;   46.087; -316.207;  102.374
455.345;  118.393;   71.807;  344.347
455.632;   92.115; -128.207;  235.373
455.919;   56.809;  -82.196;  182.354
456.207;  -50.234; -774.198; -450.642
456.494;  -10.551; -475.200;  -66.639
456.781;   11.957; -399.202; -198.635
457.068;   61.272; -253.206;  -29.628
457.355;   -9.102; -698.206; -401.629
457.642;    1.904; -552.205; -290.630
457.929;    5.084; -778.194; -417.651
458.216;   64.966; -575.212; -354.617
458.503;  257.788; -173.193;  -19.652
458.790;  262.606; -864.208; -630.625
459.077;  267.187;  -77.202;  110.364
459.364;  819.726; -350.195; -210.649
459.651; 1760.245;  -46.206;  220.372
459.938;  810.771; -864.209; -665.623
460.225;  142.890;  132.799;  276.363
460.512;  -34.369; -836.197; -688.645
460.799;  108.368;  -32.218;  320.392
461.086;   72.178; -370.200; -251.640
461.372;   39.516; -509.198; -279.642
461.659;  119.961; -165.196;  108.354
461.946;   62.462; -445.193;  -54.651
462.233;  233.076;  842.800;  888.361
462.519;  365.398; -814.201; -464.639
462.806; 1057.407; -768.197; -497.645
463.093;  903.408; -445.191;  -66.656
463.380;  -22.400; -920.186; -824.664
463.666;   57.459; -259.197;  -18.646
463.953;  104.021; -406.195; -243.648
464.239;  202.321; -173.195;  -77.648
464.526;  390.932;  413.806;  743.350
464.813;  344.795; -565.190; -304.658
465.099;  330.363;  606.807;  607.348
465.386;  339.367;  903.807;  921.348
465.672;   24.632; -694.197; -522.645
465.959;   15.063; -598.188; -520.662
466.245;   25.167; -468.193; -359.652
466.532;   84.644; -109.195;   63.352
466.818;   72.575; -357.186; -216.664
467.104;    0.616; -488.182; -415.672
467.391;  -18.628; -628.189; -459.658
467.677;   41.154; -289.186;    9.335
467.964;   10.354; -682.189; -471.660
468.250;   60.332; -331.186; -160.665
468.536;   88.823;   90.811;  180.341
468.822;  -25.056; -821.184; -574.668
469.109;  142.674;  351.827;  471.311
469.395;  194.402;  729.808;  787.346
469.681;  200.626;   46.811;  156.341
469.967; 1282.181; -699.188; -382.660
470.254; 2854.664; -494.188; -306.662
470.540; 1758.359; -601.196; -476.646
470.826;  259.628; -488.181; -397.675
471.112;  311.097;  288.816;  113.331
471.398;   93.677; -253.183;  -58.670
471.684;   54.107; -626.177; -447.680
471.970;   12.332; -918.180; -981.675
472.256;   31.651; -521.192; -441.654
472.542;   18.660; -499.171; -434.691
472.828;   23.437; -743.182; -607.672
473.114;   32.305; -380.166; -283.700
473.400;   12.399; -504.175; -293.684
473.686;   43.236; -452.166; -400.701
473.972;   78.939; -230.174; -131.687
474.258;  -28.701; -925.173; -843.689
474.544;  200.198; -183.178;   -2.679
474.830;  329.625;  -65.175;   45.316
475.116;  505.922; -123.190; -196.658
475.401;  693.209; -558.180; -467.676
475.687;  201.758; -725.180; -718.676
475.973;   10.595; -673.181; -770.673
476.259;  238.553;  736.825;  764.315
476.544;  374.190; -539.176; -437.682
476.830;  863.581; -398.172; -322.690
477.116;  758.688; -430.177; -336.682
477.401;  152.158;  346.820;  358.324
477.687;    9.374; -289.175; -405.684
477.973;   41.049;   21.819;   28.326
478.258;    1.432; -448.163; -348.706
478.544;   54.012;   21.815;   61.334
478.829;  -45.384; -818.171; -738.692
479.115;  -33.094; -749.172; -651.690
479.401;  -13.341; -444.174; -449.686
479.686;   26.582; -253.180;  -74.676
479.972;  -17.997; -886.178; -776.680
480.257;   37.231; -258.166;  -65.700
480.542;   13.295; -614.170; -469.693
480.828;  222.022; 1288.824; 1392.317
481.113;  -18.230; -464.176; -426.683
481.399;    4.007; -236.161; -202.711
481.684;  -47.169; -620.166; -462.700
481.969;   19.370; -158.159;  -73.713
482.255;   15.581; -439.169; -285.695
482.540;   -4.271; -569.178; -441.680
482.825;   15.220; -395.187; -404.663
483.110;   98.109;  -85.169; -105.696
483.396;  205.192; -840.157; -652.718
483.681;  504.064;  543.826;  730.313
483.966;  174.939; -696.160; -700.712
484.251;   -6.387; -404.174; -310.687
484.536;    0.242; -356.165; -378.703
484.822;    8.841; -205.173; -218.687
485.107;  -35.094; -599.152; -502.726
485.392;  131.347;  662.836;  541.296
485.677;   93.344;  354.832;  163.302
485.962;  108.415;  160.843;  270.283
486.247;  108.840;  -14.162;   -8.707
486.532;   49.232; -178.166; -325.701
486.817;  169.776;  381.839;  431.291
487.102;  111.939; -453.154; -514.722
487.387;  691.769; -637.156; -652.718
487.672; 1227.578; -154.164;  -38.705
487.957;  775.783; -394.160; -286.711
488.241;  212.724; -290.150; -314.729
488.526;  764.783; -280.152; -148.726
488.811; 1249.231; -881.177; -818.680
489.096;  935.417; -666.154; -702.723
489.381;  521.829;    3.847;  162.275
489.666;  423.531; -428.161; -510.710
489.950;  173.470;  558.846;  627.277
490.235;  -22.707; -480.151; -458.728
490.520;  -47.945; -756.161; -723.710
490.804;  -43.104; -827.156; -736.719
491.089;   19.415; -469.149; -299.732
491.374;   39.526; -132.164;  -75.704
491.658;   -1.749; -817.147; -717.735
491.943;  166.287; -657.152; -609.727
492.227;  260.685; -178.155;  -38.721
492.512;   65.314; -294.157; -341.717
492.797;  -64.392; -713.149; -716.731
493.081;  -21.321; -588.147; -598.735
493.366;  -30.293; -751.161; -635.711
493.650;  209.384;  831.859;  917.254
493.935;   30.726; -648.147; -447.734
494.219;  -16.579; -778.142; -687.743
494.503;  -37.522; -585.150; -487.730
494.788;   56.481;   46.842;   74.285
495.072;  117.125;  184.850;  434.271
495.356;  185.243; -463.148; -343.733
495.641;  465.161; -812.146; -736.736
495.925;  446.851; -976.156; -903.719
496.209;   38.289; -599.149; -451.732
496.494;  -30.079; -763.142; -544.744
496.778;   -4.036; -364.154; -360.722
497.062;  -37.999; -819.156; -627.719
497.346;  -24.815; -869.160; -640.711
497.631;  134.522;  580.852;  560.266
497.915;   80.347;  -64.145;  175.261
498.199;   64.442; -341.157; -277.718
498.483;   36.331; -562.152; -508.725
498.767;  179.101;  301.850;  300.271
499.051;  187.037; -126.149; -100.732
499.335;   43.085; -693.149; -739.731
499.619;  -26.363; -381.129; -423.767
499.903;   28.908; -272.155;  -65.721
500.187;   28.196; -588.153; -316.724
500.471;   40.786; -796.152; -595.727
500.755;  120.906;   62.839;  -96.710
501.039;   19.909; -270.155; -357.721
501.323;   88.635;  -21.141;  264.254
501.607;   41.883; -447.163; -503.706
501.891;   20.944; -607.156; -512.718
502.174;  -25.917; -726.144; -585.741
502.458;   81.716;   89.849;  370.273
502.742;   57.835; -180.138; -191.751
503.026;  131.800; -412.147; -254.734
503.310;  189.244; -437.159; -375.713
503.593;  133.027; -464.147; -325.735
503.877;  137.351; -232.133; -156.760
504.161;  181.199;    2.847;  -50.724
504.444;  148.008; -841.158; -710.716
504.728;  470.400; -487.164; -522.704
505.012;  741.748; -257.150;  -76.729
505.295;  564.057; -417.161; -212.711
505.579;  537.526; -256.156; -496.719
505.862;  793.218; -555.145; -333.738
506.146;  771.697; -681.159; -758.714
506.429;  407.197;  568.841;  461.286
506.713;   85.295; -732.151; -667.728
506.996;  340.539;   90.846;  295.278
507.280;  359.196; -633.165; -474.703
507.563;  270.132; -469.155; -261.721
507.847;  107.722; -423.153; -112.724
508.130;   85.982; -665.161; -456.711
508.413;  135.477; -758.167; -577.700
508.697;  250.702; -151.167;   12.300
508.980;  168.249; -422.153; -312.724
509.263;   -5.822; -466.155; -450.720
509.547;   48.898; -124.150;   82.271
509.830;   41.410; -172.160;  140.289
510.113;   93.126;  128.844;  298.281
510.396;   41.204; -530.152; -300.725
510.680;  171.869; -818.145; -812.738
510.963;  598.468;  184.846;  180.277
511.246;  514.681; -493.150; -357.730
511.529;  261.249; -482.145;  -83.739
511.812;  403.748; -250.134;   10.241
512.095;  283.992; -740.151; -396.728
512.378;   81.006; -317.147; -245.736
512.661;   29.843; -703.137; -623.753
512.944;   33.998; -750.142; -637.744
513.227;   68.740; -170.137; -171.752
513.510;   44.458; -479.144; -671.741
513.793;   22.840; -485.140; -435.747
514.076;  150.483;  -43.127;  -39.771
514.359;  124.440; -294.149; -135.732
514.642;   94.526; -442.142; -567.744
514.925;  757.713;  581.860;  561.253
515.208; 1059.594; -498.134; -443.758
515.491;  683.283; -276.133; -182.761
515.773;  388.312; -410.143; -337.742
516.056; 2180.274;  249.864;  409.246
516.339; 2939.178; -754.136; -652.755
516.622; 1915.153; -518.150; -488.730
516.904; 1211.744;  882.857;  975.257
517.187;  562.264; -730.138; -523.752
517.470;  412.518; -568.143; -510.743
517.752;  467.431; -624.136; -470.756
518.035;  367.251; -708.139; -725.749
518.318;  394.628; -799.136; -744.755
518.600; 2517.537; -300.132; -325.762
518.883; 3487.975;  310.858;   88.256
519.165; 1682.231; -585.138; -426.751
519.448;  390.936;  -61.132;  -19.762
519.730;  228.541; -573.126; -415.773
520.013;  315.704;  588.867;  664.240
520.295;  816.449;  -94.134;  -15.759
520.578; 1804.775; -335.131; -305.764
520.860; 2039.012; -254.132;   56.238
521.143; 1075.808; -763.135; -584.756
521.425;  486.704; -251.125; -279.775
521.707;  698.309; -622.127; -380.771
521.990; 1856.134; -199.127;  167.229
522.272; 2093.517; -116.140;   -4.748
522.554;  932.238; -237.143; -157.742
522.836;  352.072;  -24.134;   99.241
523.119;  239.849; -496.148; -189.734
523.401;  158.257; -448.130; -314.766
523.683;   93.518; -865.137; -693.753
523.965;  278.461;  408.862;  260.248
524.247;  313.051;   54.878;  170.220
524.529;  212.374; -451.134; -367.759
524.812;  376.409;   -3.130;  191.234
525.094;  912.736; -773.138; -631.751
525.376; 1406.464; -143.124;   78.223
525.658;  863.650; -441.136; -339.754
525.940;   42.646; -805.131; -671.764
526.222;   30.129; -188.136;  -88.755
526.504;  116.494; -190.131;   32.237
526.786;  176.602; -960.133; -647.760
527.068;  307.444; -124.123;  -67.778
527.349;  144.722; -865.137; -774.754
527.631;  143.636; -137.132;   22.238
527.913;  140.133; -664.127; -450.771
528.195;  185.522; -761.125; -639.774
528.477;  249.569;  -93.134;  -30.758
528.759;  153.208; -648.130; -522.766
529.040;   74.418; -569.123; -293.778
529.322;   65.575; -235.125;  -10.774
529.604;  119.411;  -47.130;   93.233
529.886;  135.091; -546.126; -302.773
530.167;  124.377;  232.870;  192.235
530.449;   62.856;    1.853;   63.265
530.731;   25.600; -572.122; -459.779
531.012;   99.646; -513.120; -216.784
531.294;   76.411; -118.116;  -43.792
531.575;  162.679;  290.875;  538.225
531.857;   76.414; -548.135; -266.757
532.138;  109.584; -113.141;   40.254
532.420;  180.185;  294.865;  403.244
532.701;  217.954; -722.133; -751.760
532.983;  338.857;  232.867;  182.239
533.264;  134.514; -243.126;  175.228
533.546;  -26.121; -491.136; -508.755
533.827;   43.376;  173.867;   -1.759
534.109;   42.439; -352.135;  -80.757
534.390;  108.615; -725.132; -582.762
534.671;  245.860; -270.135;  -82.756
534.953;  158.896; -751.123; -611.779
535.234;   36.496; -426.117; -255.789
535.515;  -67.995; -891.119; -735.785
535.796;   -8.221; -431.128; -193.770
536.078; -107.862;-1050.124; -904.777
536.359;   24.022;  -22.123;    3.221
536.640;   -2.126; -480.125; -197.774
536.921;  152.591;  225.871;  143.232
537.202;  386.483;  -87.138;  -16.751
537.483;  485.624;  251.869;  377.236
537.764;  192.727;   17.870;   98.235
538.045;  -32.532; -543.134; -371.758
538.326;  -24.557; -596.129; -447.768
538.607;   21.785; -686.127; -476.771
538.888;  179.337;   98.879;    5.218
539.169;  204.182; -704.122; -535.781
539.450;  338.340;  236.871;   16.233
539.731;  231.891; -361.121; -182.783
540.012;  142.396;  199.880;  412.216
540.293;   88.658;   82.876;  158.224
540.574;   11.983; -895.113; -717.796
540.855;  447.990;  435.879;  377.218
541.136;  542.704;   47.878;  139.220
541.416;  285.359; -161.130; -220.766
541.697;  222.120; -274.131; -170.763
541.978; 1097.337; -270.135; -315.757
542.259; 1363.510; -211.127; -236.771
542.539;  649.780; -191.116; -186.790
542.820;  187.754;  461.875;  480.225
543.101;  124.571;  -52.145;  -77.738
543.381;   39.159; -638.127; -591.771
543.662;  277.632;  159.873; -254.771
543.942;  600.855; -751.127; -830.770
544.223; 1091.181;  193.878;  161.219
544.504;  726.238; -275.124; -182.777
544.784;  619.716; -592.126; -408.773
545.065; 1731.759;  104.884; -254.791
545.345; 2026.630;  227.881;   14.215
545.626; 1332.507;  -14.113; -108.796
545.906;  914.302;   77.869;   98.235
546.186;  384.220;   92.874;  -95.773
546.467;  191.391;   99.877;  -95.778
546.747;  339.680;  264.884;  327.210
547.027;  384.462;   91.876;  111.223
547.308;  352.629; -376.127; -530.770
547.588;  407.394;  299.871;  371.232
547.868;  203.153;  458.870;  588.235
548.149;  195.342;  609.885;  593.207
548.429;  149.783; -347.127; -299.771
548.709;  209.471; -645.120; -461.784
548.989;  491.365;   84.882;   88.213
549.269; 2156.110;   10.868;  139.239
549.550; 5024.720;  215.877;  117.222
549.830; 4485.475; -758.111; -556.799
550.110;  895.133; -468.110; -320.801
550.390;  858.600; -128.122;  -56.779
550.670; 1189.553; -868.114; -783.795
550.950;  846.789; -509.121; -471.782
551.230;  199.886;  549.879;  460.218
551.510;   -2.012; -381.121; -326.782
551.790;   40.291; -173.109; -127.803
552.070;  266.691;  940.877; 1181.223
552.350;  438.284; -492.119; -377.786
552.630;  614.508;   -2.121;   77.219
552.909;  367.460;  181.884;   73.209
553.189;  257.716;  -49.132;   33.237
553.469;  218.109; -703.119; -514.786
553.749;  198.161; -469.127; -357.772
554.029;  174.200;   33.883;  -24.790
554.308;  148.896; -154.115;  -37.794
554.588;   81.578; -196.128; -204.770
554.868;   80.565; -366.121;  -47.782
555.147;  163.268; -114.115;  -46.793
555.427;  619.162; -260.116; -250.792
555.707; 4032.141; -284.115; -200.793
555.986; 4901.679; -719.111; -538.800
556.266; 2567.079;   23.884;   72.210
556.546;  116.413; -888.121; -675.782
556.825;  259.325; -657.114; -556.794
557.105; 1856.326; -125.128;   17.230
557.384; 2235.333;  122.884;  187.209
557.664;  828.336; -717.116; -508.792
557.943;  137.715; -557.121; -411.782
558.222;  193.493; -345.118; -344.788
558.502;  296.344; -116.115;  -76.793
558.781;  505.215;  194.885;  499.208
559.061;  424.293; -232.118; -227.788
559.340;  306.223;  302.883;  353.211
559.619;  736.529;   93.884;  148.210
559.899; 1060.975; -239.117; -266.789
560.178;  984.369; -778.115; -593.793
560.457; 3287.876; -623.117; -562.790
560.736; 4624.080; -472.111; -482.800
561.015; 3024.474; -500.128; -502.769
561.295;  400.411;  180.893;  215.193
561.574;  359.866;  119.885;  116.207
561.853;  520.645;  274.891;  303.197
562.132;  509.871;  -45.114;  182.206
562.411;  462.034;  396.879;  553.219
562.690;  156.014; -592.115; -458.792
562.969;  155.914;  472.888;  630.203
563.248;  499.581; 2966.878; 2487.219
563.527;  303.129; -290.111; -408.800
563.806;  411.758; -650.127; -521.771
564.085;  441.227; -297.105; -206.810
564.364;  254.953; -594.117; -405.790
564.643;  542.309; -276.121; -223.781
564.922; 1976.439;  221.890;  397.198
565.201; 1980.618; -640.109; -700.803
565.479;  838.238; -297.115; -219.792
565.758;  375.576; -810.128; -712.770
566.037;  493.219; -155.109; -100.803
566.316;  269.834; -286.116;  -28.791
566.595;   53.591;  -17.115;  -12.793
566.873;  112.406; -166.111;  -79.801
567.152;  -49.011; -490.113; -590.797
567.431;   14.505; -113.116;    6.210
567.709;   16.086; -344.107; -212.807
567.988;  275.425; -810.114; -769.794
568.266;  559.116; -160.115;  -68.793
568.545;  420.475; -644.100; -514.819
568.824;  598.413;  160.885;  356.208
569.102;  598.950; -351.114; -235.794
569.381;  231.337; -492.116; -407.792
569.659;  -39.690; -553.113; -553.796
569.938;   54.604; -743.122; -465.780
570.216;  116.972; -225.109; -225.804
570.494;  -16.172; -632.114; -572.795
570.773;   56.313;  202.879;  114.218
571.051;    3.119; -373.123; -357.778
571.330;   81.482; -221.113; -174.796
571.608;   49.768; -181.098; -173.823
571.886;  -51.102; -671.111; -581.799
572.164;  -56.160; -739.121; -621.782
572.443;  -39.295; -562.105; -512.811
572.721;  -20.173; -399.117; -289.790
572.999;  -15.455; -280.117; -168.788
573.277;   82.449;  379.894;  620.191
573.555;  304.576;   94.894;   37.190
573.834; 1409.120;  -86.117; -114.788
574.112; 1674.239;  880.893;  811.193
574.390;  484.730; -143.111;  -96.801
574.668;   14.015;  -91.112;  -61.797
574.946;  -13.924; -165.106; -187.810
575.224;   17.143;   71.891;  -16.803
575.502;   -5.069; -200.116; -204.791
575.780;  -77.734; -767.112; -829.798
576.058;  234.754; 1589.889; 1004.200
576.336;  -12.065; -210.110; -129.801
576.614;  -62.309; -511.112; -340.798
576.891;   65.621; -711.115; -823.794
577.169;  503.130; -158.108; -285.805
577.447;  606.788;  169.893;  202.193
577.725;  279.971;  629.888;  854.201
578.003;   17.469;  -71.112; -371.798
578.280;   89.165; -208.104; -242.812
578.558;   83.369; -450.115; -422.793
578.836;  123.278; -210.114; -145.795
579.114;   63.314; -630.112; -670.797
579.391;   64.322;   -6.117;  -18.789
579.669;  -60.279; -595.114; -704.794
579.947;  171.885; -326.107; -127.806
580.224;  351.685; -692.107; -524.806
580.502;  334.414;  127.893;   76.193
580.779;   29.953;  -42.117;   75.210
581.057;  -58.528; -584.109; -470.804
581.334;  -88.970; -726.102; -695.815
581.612;   34.027;   54.895;  511.190
581.889;  -14.607;  -83.101; -129.818
582.167;  -23.792; -298.099; -190.821
582.444;  -81.212; -845.102; -814.817
582.721;   96.089;  657.899;  715.183
582.999;   58.255; -326.100; -167.821
583.276;  549.848; -812.123; -713.779
583.553;  771.083; -364.102; -294.816
583.831;  250.461; -607.104; -631.812
584.108;   60.303;  349.892;  174.195
584.385;    9.454; -122.102;  -98.815
584.662;  -40.118; -651.111; -828.801
584.940;   28.956;  204.889;  204.199
585.217;   -9.841;  -73.113; -303.796
585.494;   33.915;   71.890;  118.198
585.771;  216.923; -250.109; -354.804
586.048;  520.534; -196.113;  -76.796
586.325;  323.484; -721.110; -773.801
586.602;   84.315;  230.896;  213.188
586.879;   -2.998; -499.100; -580.820
587.156;   53.828; -156.105; -331.810
587.433;  -17.339; -701.102; -667.817
587.710;   69.892;  152.888;  234.202
587.987;  308.558; -264.105; -236.811
588.264;  814.318;  315.888;  387.202
588.541; 1380.293;  -61.104;   26.187
588.818; 2779.100;   72.892;  171.196
589.095; 2367.363; -163.104; -174.812
589.371;  369.496; -459.109; -414.804
589.648;   29.839; -581.107; -437.807
589.925;   36.504; -517.114; -621.795
590.202;   30.566; -741.112; -607.798
590.478;   89.710; -166.105;  -73.811
590.755;  269.256; -241.108; -132.806
591.032; 2578.061; -741.110; -699.802
591.308; 3572.659; -732.094; -790.831
591.585; 1833.311; -573.110; -560.802
591.862;  163.887;-1056.102; -950.817
592.138;   80.979; -475.108; -474.805
592.415;  155.491; -486.104; -495.813
592.691; 1489.339;  460.896;  518.188
592.968; 1918.970; -208.098; -123.824
593.244;  911.380; -695.116; -595.790
593.521;   85.813; -105.102;  -42.817
593.797;  -15.273; -810.122; -720.780
594.074;  352.308; -611.096; -588.826
594.350;  686.319;  828.905;  729.172
594.626;  318.732; -303.111; -283.801
594.903;  119.588; -643.101; -645.817
595.179;  197.145;  243.896;  418.187
595.455;   10.515; -136.107; -150.807
595.731;    6.296;  -19.103;  -38.814
596.008;  -29.599; -464.111; -434.800
596.284;   61.154; -187.100; -242.820
596.560;   48.641; -501.093; -493.833
596.836;  207.355; -173.105;  -70.810
597.112;  349.179; -582.108; -437.805
597.388;  312.131;  -49.097;  -48.826
597.665;  118.337;  437.887;  530.203
597.941;  -57.304; -572.089; -658.839
598.217;   16.440; -323.110; -293.802
598.493;  274.549;   61.891; -204.804
598.769;  528.148; -175.100;  -50.819
599.045;  320.582; -490.108; -562.806
599.321;   42.778; -193.100; -261.820
599.597;  140.374; -355.109; -476.804
599.872;  497.167;  409.896;  429.187
600.148;  381.482;  -61.097; -172.826
600.424;  296.662;   91.893;  202.193
600.700;  251.240; -170.107; -280.807
600.976;  117.026; -442.097; -464.825
601.252;  255.620; -226.109; -272.803
601.527;  221.943; -833.104; -840.813
601.803;  154.586; -453.105; -404.812
602.079;  188.548; -124.100; -118.819
602.354;  588.151; -620.092; -531.835
602.630;  848.509; -140.113; -482.796
602.906; 2374.793; -910.101; -863.818
603.181; 6894.059; -627.119; -534.786
603.457; 5853.105;   98.903; -278.826
603.733;  867.042; -605.120; -626.783
604.008;  985.002; -245.106; -164.810
604.284; 3125.290; -636.101; -580.817
604.559; 2770.221;   -3.112;  -42.799
604.835;  495.930; -163.105; -225.810
605.110;  434.333; -732.099; -892.821
605.385;  719.343;  224.907;  267.167
605.661;  671.247; -625.095; -729.829
605.936; 1219.908; -664.108; -737.806
606.211; 1041.253;  -17.103; -170.815
606.487;  213.874; -329.114; -376.794
606.762;   34.934; -791.119; -745.786
607.037;  -19.320; -501.105; -433.810
607.313;  -49.085; -589.096; -574.828
607.588;    5.601; -375.106; -137.810
607.863;   40.718;  -28.101; -143.818
608.138;  171.588;  513.890;  516.198
608.413;   51.362; -576.099; -592.822
608.688;   42.754; -203.108; -267.805
608.964;  216.995; -509.106; -218.809
609.239;  252.027; -107.105; -212.810
609.514;  251.510;  281.895;  240.188
609.789;  667.815; -187.104; -716.812
610.064;  907.064; -435.096; -609.827
610.339;  903.421; -855.109; -799.804
610.614; 1208.353; -131.100; -315.820
610.889;  675.910;  215.895;  107.188
611.163;   50.536; -407.104; -591.812
611.438;   76.250;   81.886; -167.794
611.713;    6.165; -467.101; -499.817
611.988;   43.617; -144.101; -328.818
612.263;   -6.220; -771.102; -717.815
612.538;  218.959;  385.887;  251.204
612.812;  191.080; -832.100; -911.820
613.087;  135.343; -358.098; -338.823
613.362;  -39.935; -497.107; -557.807
613.637;   45.849;  261.897;  138.186
613.911;    1.226; -256.092; -345.835
614.186;  118.663; -249.107; -292.807
614.460;  713.372; -842.081; -758.854
614.735;  808.194;  -55.087;  -17.843
615.010;  174.134;   43.912;  -82.841
615.284;  252.378;  360.892;  246.195
615.559;  402.750; -792.092; -955.835
615.833;  294.485;  -76.099;  -87.822
616.108;    8.287; -225.090; -390.837
616.382;  139.796;  274.913;  402.156
616.656;  163.888; -241.090; -232.837
616.931;  525.511; -785.099; -700.822
617.205; 1097.244; -973.104; -979.813
617.480;  979.277;  -91.125;    6.225
617.754;  178.400; -396.125; -128.774
618.028;    8.720; -369.129; -382.768
618.302;   69.352;   73.892;  -25.805
618.577;  -44.800; -371.103; -518.815
618.851;  -47.483; -399.109; -600.803
619.125;  -45.451; -335.134; -378.759
619.399;  -17.031; -244.104; -374.813
619.673;  -42.812; -330.115; -515.792
619.947;  -35.547; -333.114; -448.795
620.222;  -28.117; -198.110; -204.801
620.496;    3.590;  -47.121;  -96.782
620.770;   10.456; -187.122;  -93.781
621.044;  215.853;  323.895;  346.190
621.318;  748.593; -653.120; -614.783
621.592;  694.216; -430.121; -409.783
621.866;  376.872; -476.112; -572.799
622.140;   29.406; -207.116; -356.791
622.413;   58.976;  138.889;  112.200
622.687;  -28.585; -746.101; -492.817
622.961;   13.702; -130.108; -143.805
623.235;  -42.748; -633.111; -661.800
623.509; -104.115; -816.105; -848.811
623.783;   20.861;  -12.107;   48.193
624.056;  -15.056; -254.120; -280.783
624.330;   48.065;   63.888;   -3.797
624.604;   45.078; -271.116; -355.790
624.877;   72.287;  180.890;   26.198
625.151;   44.472; -249.114; -238.794
625.425;  -31.254; -150.103; -283.814
625.698;  -49.272; -367.119; -374.785
625.972;  -86.460; -799.110; -765.802
626.245;   84.805;  685.884;  484.210
626.519;  -42.527; -426.120; -340.784
626.792;  -26.210; -192.107; -380.807
627.066;  -79.276; -485.122; -662.779
627.339;  -84.814; -736.110; -663.802
627.613;   39.422;  351.880;  148.216
627.886;   49.017;  187.891; -612.803
628.160;   -6.658;  312.880; -161.783
628.433;  -88.920; -695.125; -703.775
628.706;  -70.277; -517.120; -615.784
628.979;   24.537;  296.876;  117.223
629.253;  -66.992; -785.119; -833.786
629.526;  378.489; -334.126; -253.772
629.799;  362.694; -641.123; -479.778
630.072;  178.296; -497.128; -516.769
630.346;  -30.745;-1115.116;-1080.790
630.619;  460.316; -467.107; -545.808
630.892;  657.752;  709.889;  593.200
631.165;  340.769;  790.896;  679.187
631.438;  -58.857;-1092.112;-1055.798
631.711;   50.547;  453.877;  257.221
631.984;  -40.225; -523.117; -624.789
632.257;  -59.853; -636.117; -681.789
632.530;  -35.421; -412.119; -433.785
632.803;   18.720; -109.115;    7.207
633.076;  -57.784; -360.123; -422.777
633.349;    3.050;  173.872;  121.231
633.622;  -28.573; -187.119; -240.785
633.895; -114.931; -903.120; -823.783
634.167;  -60.584; -496.126; -525.773
634.440;  -17.764;  -19.116; -137.792
634.713;   -8.168;  -22.119; -120.786
634.986;   71.740;  593.871;  453.233
635.258;  -63.607; -507.115; -597.793
635.531;   97.092;  742.882; -343.788
635.804;  -20.751; -303.117; -318.789
636.077;  -89.043; -830.116; -852.791
636.349;    3.892; -586.115; -474.793
636.622;  369.313; 1695.874; 1392.228
636.894;  269.623; -474.120; -909.784
637.167;  170.982; -836.127; -789.771
637.439;   29.228; -278.128; -213.770
637.712;  -41.810; -312.126; -293.772
637.984;  -63.867; -635.116; -707.791
638.257;  367.116;  515.877;  488.222
638.529;  596.531; -881.125; -924.776
638.802;  245.096; -508.128; -449.769
639.074;  -91.469; -927.122; -952.781
639.346; -117.434; -942.135; -930.757
639.619;    9.824;  -79.142; -319.744
639.891;  -12.101;  -83.122; -168.779
640.163;  -74.949; -689.122; -756.780
640.435;   27.303;  273.878;  103.220
640.708;   13.655;  -72.122; -132.780
640.980;  -15.868; -366.122; -362.781
641.252;  180.859;  -25.121;  -71.781
641.524; 1805.835;  580.879;  573.219
641.796; 1865.812;-1094.121; -907.782
642.068;  337.864; -191.121; -300.782
642.340;  -49.309; -486.121; -566.783
642.613;   43.343;  294.880;  323.217
642.885;  -94.080; -787.120; -878.783
643.157;  -39.003; -810.120; -658.784
643.428;   60.548;  170.880;  218.216
643.700;  -69.275; -498.120; -425.784
643.972;  -31.923;  -16.119; -133.785
644.244;  -94.846; -474.119; -559.785
644.516;  -51.744; -250.119; -114.786
644.788;   65.183;  662.881;  548.214
645.060;  -13.015;  -12.119; -124.786
645.332;  -93.563; -525.118; -535.787
645.603;   45.288;  479.882;  342.213
645.875;  -70.110; -334.118; -369.787
646.147;  162.067; 1487.882; 1242.212
646.418;  -61.131; -931.117; -918.788
646.690;  160.996; -714.117; -715.789
646.962;   39.698; -413.117; -451.789
647.233;  -11.550;   15.883;   11.211
647.505; -101.548; -595.117; -475.790
647.776;   26.928;  328.884;  229.210
648.048;   -4.820; -248.116; -418.790
648.320;  -59.593; -752.116; -679.791
648.591; -140.991;-1055.116; -958.791
648.862;  -71.839; -505.116; -577.792
649.134;   15.538;  115.885;  198.208
649.405;  -46.835; -661.115; -618.792
649.677;  -48.259; -475.115; -598.793
649.948;    0.843; -181.115; -296.793
650.219;  -16.205;  -37.115; -147.793
650.491;  -76.103; -431.114; -520.794
650.762; -121.451; -705.114; -731.794
651.033;  -79.599; -437.114; -424.795
651.304;  -91.072; -743.114; -728.795
651.576;  -61.020; -680.114; -645.795
651.847;  -34.794; -250.113; -140.796
652.118;  -13.792;  -32.113; -189.796
652.389; -105.465; -639.113; -722.796
652.660;  -29.313; -147.113;  -89.797
652.931; -133.861; -897.112; -871.797
653.202;  -66.184; -382.112; -541.798
653.473;  -70.782; -633.112; -533.798
653.744;  162.570; -595.112; -590.798
654.015;  145.646; -356.112; -303.799
654.286;  -49.702; -642.111; -663.799
654.557;  -52.700; -586.111; -521.799
654.828; -150.473;-1114.111;-1088.800
655.099;  -80.096; -404.111; -291.800
655.370;  -80.594; -427.111; -543.801
655.641; -116.242; -656.110; -714.801
655.911;  -89.741; -618.110; -638.801
656.182;   33.061;  437.890;  387.198
656.453;  101.063;  830.890;  746.198
656.724;  -71.510; -466.110; -426.802
656.994;  -82.633; -553.109; -568.803
657.265; -101.881; -862.109; -873.803
657.536;  -70.254; -500.109; -377.804
657.806; -112.352; -561.109; -593.804
658.077; -138.751; -866.109; -950.804
658.347;  -79.049; -523.108; -598.805
658.618;  -95.147; -646.108; -694.805
658.888;  -19.170;  -41.108;  112.195
659.159;  -69.643; -432.108; -548.806
659.429;   -9.016; -292.108; -349.806
659.700;   18.461; -435.107; -390.807
659.970;   -8.613; -370.107; -359.807
660.241;   11.114; -754.107; -921.807
660.511;  523.191; -147.107; -174.808
660.781;   98.318; -793.106; -748.808
661.052;  -44.180; -222.106; -381.808
661.322;  -20.903;   21.894;   -9.809
661.592;    6.849;  257.894;  148.191
661.862;  -67.249; -369.106; -382.810
662.133; -101.223; -551.105; -502.810
662.403; -102.846; -770.105; -676.810
662.673;  -55.194; -256.105; -213.811
662.943;  -87.642; -612.105; -551.811
663.213;   -8.615;  -85.105;  -81.811
663.483;  -74.088; -593.104; -568.812
663.753;  -48.186; -194.104; -152.812
664.023;  -20.359;   68.896;  -32.813
664.293;  -27.408; -319.104; -126.813
664.563; -110.081; -694.104; -648.813
664.833; -110.229; -743.103; -608.814
665.103; -125.127; -730.103; -793.814
665.373; -110.875; -766.103; -806.814
665.643;  -76.298; -863.103; -918.815
665.913;   33.829; -534.103; -714.815
666.182;  148.155; -685.102; -719.816
666.452;  269.682;  -22.102;  -89.816
666.722;  -18.341; -724.102; -784.816
666.992; -132.989; -948.102; -921.817
667.261;  -92.262; -824.102; -808.817
667.531;  189.340;  134.899;   45.183
667.801;  557.517; -440.101; -412.818
668.070;  231.594;  714.899;  697.182
668.340;  -90.205; -883.101; -840.819
668.609;   85.022;  588.900;  301.181
668.879;  -75.176; -490.100; -558.819
669.149;  -78.849; -539.100; -516.820
669.418;  -96.897; -698.100; -726.820
669.688;  -28.470; -482.100; -666.820
669.957;   93.057; -423.099; -546.821
670.226;  -26.891; -268.099; -331.821
670.496;  -84.190; -431.099; -635.822
670.765;  -78.588; -418.099; -501.822
671.034; -130.961; -872.099; -828.822
671.304;  -19.409;   55.902; -111.823
671.573; -141.657;-1085.098; -957.823
671.842;   91.145; -380.098; -294.823
672.112;   23.047; -692.098; -586.824
672.381;   -4.627; -239.098; -214.824
672.650; -126.450;-1005.097;-1021.825
672.919;  -91.948; -631.097; -507.825
673.188;  -89.571; -681.097; -878.825
673.457; -152.319;-1101.097;-1143.826
673.726;  -60.767; -579.096; -646.826
673.995;  -32.640; -533.096; -479.826
674.265;  -10.813; -263.096; -333.827
674.534;   11.363; -183.096; -235.827
674.802;   18.615; -618.096; -703.828
675.071;  980.167; -886.095; -801.828
675.340; 4040.769; -464.095; -339.828
675.609; 1333.771;  103.905;   82.171
675.878;   93.148; -949.095; -893.829
676.147;   26.425;  -26.095;   -8.829
676.416;  105.676; -210.094; -294.830
676.685;  749.878; 1000.906; -622.830
676.953;  110.680; -603.094; -452.831
677.222;  -21.593; -193.094; -273.831
677.491;  -15.466;  -24.094; -127.831
677.759;  -17.764;   11.907;  172.168
678.028;  -16.187; -279.093; -222.832
678.297;   -4.585;   71.907;  197.168
678.565; -133.034; -898.093; -944.833
678.834;  -49.407; -311.093; -268.833
679.102;  -79.330; -411.092; -391.834
679.371; -131.528; -898.092; -727.834
679.639; -126.601; -797.092; -786.834
679.908; -123.674; -794.092; -724.835
680.176; -148.972; -895.091; -941.835
680.445;  -64.770; -346.091; -352.835
680.713;   -4.219;  -58.091;  -23.836
680.982;  -93.667; -523.091; -525.836
681.250;  -89.865; -578.091; -507.837
681.518;  -93.238; -534.090; -751.837
681.787;  -20.486; -204.090; -167.837
682.055;  -65.734; -490.090; -422.838
682.323; -137.907; -993.090; -992.838
682.591;   46.694; -216.090; -538.838
682.859;   95.096;    9.911;  -35.839
683.128;   20.348;  232.911;  497.161
683.396; -150.200;-1102.089;-1122.840
683.664;  -40.223; -241.089;   21.160
683.932;    1.904;  144.911;  -76.840
684.200;  -77.944; -576.088; -320.841
684.468;  -30.467;  -73.088; -124.841
684.736;  -39.491; -214.088; -175.841
685.004; -112.039;-1024.088; -982.842
685.272;  -29.262; -880.088; -774.842
685.540;  -53.085; -499.087; -557.843
685.808;  -86.458; -651.087; -682.843
686.076;  -87.731; -894.087; -969.843
686.343;  -48.379; -601.087; -815.844
686.611;   44.823; -195.087; -224.844
686.879;  447.999; -530.086; -553.844
687.147; 3408.526; -483.086; -480.845
687.414;  978.228;  -12.086; -169.845
687.682;    6.005; -658.086; -757.846
687.950;  329.332;  259.915;  263.154
688.217;   16.859; -792.085; -760.846
688.485;  -12.564; -632.085; -636.847
688.753;  540.712;  -11.085; -102.847
689.020;  188.364; -820.085; -851.847
689.288;  -93.509; -853.084; -787.848
689.555;  -33.957; -195.084; -148.848
689.823;  -43.305; -241.084; -345.849
690.090;  -73.328; -546.084; -651.849
690.358; -141.601; -877.084; -897.849
690.625;    8.076;  120.917;   45.150
690.892;  -68.798; -403.083; -369.850
691.160;  -18.371;   72.917;  -35.850
691.427;    8.206;  141.917;  130.149
691.694; -127.642; -855.083; -929.851
691.962; -131.515;-1177.082;-1060.852
692.229;   17.987;  127.918;   56.148
692.496;   94.789;  130.918;  -49.852
692.763;   20.316; -164.082; -201.853
693.031;  -46.033; -739.082; -716.853
693.298;  -37.006; -509.081; -368.853
693.565;  303.771; -155.081; -163.854
693.832; 1328.348;   -5.081;   -9.854
694.099;  159.500; -643.081; -642.855
694.366;  -68.073; -882.081; -896.855
694.633;  -37.746; -920.080; -633.855
694.900;  728.555; 4367.920; -114.856
695.167;  447.432; -214.080; -380.856
695.434;  113.484; -646.080; -623.856
695.701;  197.011;  121.921;  -61.857
695.968;  470.138; -365.079; -361.857
696.234;  970.690; -415.079; -646.858
696.501;10363.692; -776.079; -614.858
696.768; 5461.969; -554.079; -617.858
697.035;  315.995; -632.078; -667.859
697.302;   44.372; -448.078; -552.859
697.568;    3.424; -458.078; -497.859
697.835;  -25.149; -683.078; -624.860
698.102;  -14.447; -498.078; -407.860
698.368;   82.980;  384.923;  396.139
698.635;  -40.643;  -47.077; -424.861
698.901;  -16.367; -240.077; -348.861
699.168;   87.335; -534.077; -456.862
699.435;   78.762;  -72.077;  -13.862
699.701; -100.786; -868.076; -764.862
699.968;   29.666;  144.924; -441.863
700.234;  -97.357; -783.076; -822.863
700.500;  -48.380; -448.076; -539.864
700.767;   -3.203;   -1.075;   26.136
701.033; -124.777;-1015.075; -963.864
701.299;  -50.325; -450.075; -483.865
701.566;  124.477;  950.925;  763.135
701.832;   36.354;  -31.075;  -76.865
702.098;  -86.069;-1054.074;-1034.866
702.365;  -83.117;-1098.074;-1030.866
702.631;  -15.640;-1038.074;-1063.867
702.897; 1343.612; -765.074; -676.867
703.163; 2363.963;  348.926;  254.133
703.429;  179.165; -256.073; -273.868
703.695;  -27.308; -796.073; -792.868
703.961;   17.494; -214.073; -210.868
704.227;  -52.504; -630.073; -725.869
704.493;  140.273;  613.927;  510.131
704.759;   -6.925; -565.072; -540.870
705.025;   33.426; -203.072; -194.870
705.291;  -16.397; -666.072; -562.870
705.557;  200.955;  719.928;   34.129
705.823;   34.632; -742.072; -694.871
706.089;  123.559; -307.071; -326.871
706.355;  349.461; -315.071; -244.872
706.620; 5401.213; -776.071; -729.872
706.886; 7977.790; -309.071; -362.873
707.152;  754.241; -818.070; -973.873
707.418;   -4.557;-1153.070;-1186.873
707.683;   12.820; -550.070; -530.874
707.949;  -39.728; -547.070; -578.874
708.215;    4.899; -129.070; -207.874
708.480;    0.726; -520.069; -420.875
708.746;  110.428;   68.931;   28.125
709.011;  -56.395; -578.069; -612.876
709.277;  -69.094; -538.069; -543.876
709.542;  -39.142; -428.069; -387.876
709.808;   -6.115;  -59.068;   89.123
710.073;  -66.688; -577.068; -695.877
710.339;  -41.511; -242.068; -228.877
710.604;   76.466; -780.068; -845.878
710.869;  348.093; -277.068; -366.878
711.135;  -55.381; -715.067; -628.879
711.400;  -69.054; -507.067; -608.879
711.665;  -56.002; -404.067; -479.879
711.931;  -94.975; -661.067; -677.880
712.196; -103.948; -876.067; -954.880
712.461;   96.704; -402.066; -490.880
712.726;  165.181; -727.066; -771.881
712.991;  -67.692; -647.066; -664.881
713.256;  -47.816; -350.066; -332.882
713.521;  -62.239; -417.065; -381.882
713.787;  -56.012; -454.065; -472.882
714.052;  -27.010; -214.065; -400.883
714.317;  -89.983;-1045.065; -981.883
714.581; 1010.294; -374.065; -268.883
714.846; 1449.821; -822.064; -888.884
715.111;  143.972;  261.936;  257.116
715.376;  -16.501;  -86.064; -223.885
715.641;    0.476; -365.064; -367.885
715.906;  290.128;   15.936; -551.885
716.171;  141.730;  221.937;  209.114
716.436;   50.507;  -78.063; -104.886
716.700; -106.116; -818.063; -692.886
716.965; -122.289; -794.063; -807.887
717.230;  -80.563; -339.063; -392.887
717.494;  -11.261;  -40.062; -134.888
717.759;  -82.734; -784.062; -640.888
718.024;   19.543;  269.938;  250.112
718.288;   66.620;  685.938;  395.111
718.553; -143.153; -803.062; -977.889
718.817; -140.276; -883.061; -899.889
719.082;  -39.024; -115.061; -125.890
719.346; -142.598;-1000.061; -947.890
719.611;  -35.421; -300.061; -255.891
719.875; -102.369; -568.060; -537.891
720.140;  -63.442; -453.060; -603.891
720.404;   31.235; -136.060; -249.892
720.668;  864.337; -475.060; -411.892
720.933;  347.839;  146.940;  137.108
721.197;  -84.035; -667.059; -600.893
721.461; -132.258; -851.059; -826.893
721.725;   -2.431;  -21.059; -250.894
721.990;  -49.579; -284.059; -204.894
722.254;  -31.652;  -26.059; -108.894
722.518;  -71.200; -286.058; -442.895
722.782;  -85.048; -743.058; -594.895
723.046;  118.629;  614.942;  570.105
723.310;   30.080;  374.942;  210.104
723.574;  -92.293; -654.058; -614.896
723.838;  -90.966; -576.057; -642.897
724.102;  -56.414; -226.057; -239.897
724.366; -134.287;-1032.057; -978.897
724.630;  -90.660; -749.057; -571.898
724.894;  -56.558; -722.057; -514.898
725.158;  -17.781;   38.944; -295.898
725.422;  -37.605; -394.056; -327.899
725.685;  -64.328; -441.056; -349.899
725.949;  -68.451; -566.056; -519.900
726.213;  -84.474; -732.056; -811.900
726.477;  198.903;-1020.055; -933.900
726.740;  158.855; -274.055; -104.901
727.004;  335.182; -384.055; -510.901
727.268; 3331.883; -442.055; -400.901
727.531;  981.535; -961.055; -775.902
727.795;  -30.863; -713.054; -673.902
728.059;  -58.436; -552.054; -557.903
728.322;  -71.084; -841.054; -669.903
728.586;   55.193; -692.054; -701.903
728.849;  -67.930; -695.053; -756.904
729.112; -106.753; -812.053; -912.904
729.376; -120.552; -959.053; -905.904
729.639;  -75.625; -536.053; -536.905
729.903; -104.498; -733.053; -699.905
730.166;  -45.621; -437.052; -399.906
730.429;  -27.044; -317.052; -468.906
730.693;  -66.367; -355.052; -894.906
730.956;  202.610;  810.948;  651.093
731.219;  716.087; -310.052; -103.907
731.482;  124.188;-1003.051; -894.907
731.745;  118.215; -794.051; -935.908
732.009;    9.642;  -30.051;   50.092
732.272;  -94.131; -904.051; -771.909
732.535;  -34.379; -300.051; -310.909
732.798; -141.952;-1083.050;-1166.909
733.061;  -47.300; -430.050; -456.910
733.324;   11.276;   31.950; -180.910
733.587;   52.778;  290.950;  365.090
733.850;  -72.270; -973.049;-1050.911
734.113;   38.807;   33.951;   32.089
734.376;    8.909; -328.049; -447.912
734.639;  217.286; 1188.951; 1011.088
734.901;   73.088; -180.049; -402.912
735.164;  484.540; -883.048; -837.913
735.427; 1357.516; -166.048; -355.913
735.690;  126.143; -205.048; -234.913
735.952;  -24.905; -923.048; -925.914
736.215;  -15.728;-1113.048;-1009.914
736.478;   48.999; -771.047; -774.915
736.740;  226.476;   33.953;  129.085
737.003;  667.553; -658.047; -672.915
737.266; 4164.254;  -94.047;   46.084
737.528;  463.681; -682.047; -660.916
737.791;  332.908; -316.046; -327.916
738.053;  807.160;  465.954;  649.083
738.316;10697.862; -162.046; -136.917
738.578; 8068.989; -770.046; -736.918
738.841;  471.691; -382.046; -446.918
739.103;  185.143; -875.045; -777.918
739.365;  535.744;   79.955;  -69.919
739.628;    4.821; -884.045; -805.919
739.890;  -28.702; -758.045; -710.919
740.152;  -26.925; -692.044; -754.920
740.414;   -9.623; -408.044; -359.920
740.677;  -43.821; -785.044; -634.921
740.939;  -25.444; -587.044; -487.921
741.201;  291.333; -432.044; -572.921
741.463;   47.834; -689.043; -745.922
741.725;   27.261;  -21.043; -199.922
741.987;   67.038;  220.957;  116.078
742.249;    5.515; -751.043; -859.923
742.511;  207.467; -703.043; -794.923
742.773;   20.594; -546.042; -546.924
743.035;  151.546;  796.958;  533.076
743.297;  -33.178; -963.042;-1013.924
743.559;  744.249; -278.042; -262.925
743.821;   81.526; -735.042; -744.925
744.083;   17.978;  -44.041; -149.925
744.345;  -89.545; -869.041; -892.926
744.607;   22.132;   75.959;  122.074
744.868;  -49.541; -490.041; -554.927
745.130; -101.189; -994.041;-1008.927
745.392;   38.112;   -1.040;  -44.927
745.653;    1.264; -411.040; -378.928
745.915;  167.916;  896.960;  631.072
746.177;   51.368;   35.960;  -43.928
746.438;   15.070; -428.040; -543.929
746.700;  -31.003; -947.039; -988.929
746.961;   11.199; -659.039; -740.930
747.223;  163.576; -190.039;  -74.930
747.484;   96.702; -391.039; -471.930
747.746;  159.429;  -23.038; -106.931
748.007;  121.231; -647.038; -689.931
748.269;  314.533; -468.038; -440.931
748.530;  518.560; -852.038; -638.932
748.791;  278.362; -354.038; -420.932
749.053;  451.164;  286.963;  163.067
749.314;  451.940; -236.037; -169.933
749.575;  541.442; -945.037; -905.933
749.836;  865.944; -217.037;   86.066
750.098; 2349.621;  -60.037;  -21.934
750.359;36734.248;  414.964;  555.066
750.620;10154.100; -121.036; -220.935
750.881; 1068.902; -585.036; -513.935
751.142; 1371.504; -950.036; -938.936
751.403;16482.155; -789.036; -705.936
751.664; 7914.982;-1034.035; -999.936
751.925;  529.159; -175.035; -262.937
752.186;  294.286; -298.035; -278.937
752.447;  149.738; -590.035; -445.937
752.708;   54.715; -532.035; -648.938
752.969;   16.017; -566.034; -576.938
753.230;    0.193; -777.034; -672.939
753.491;    8.395; -650.034; -631.939
753.751;   74.197;  109.966;   19.061
754.012;  100.499;  258.967;  181.060
754.273;   63.676; -174.033;  -71.940
754.534;    6.653; -487.033; -580.940
754.794;  -74.020; -926.033; -911.941
755.055;  126.157; 1051.967;  881.059
755.316;  -40.017; -700.032; -566.942
755.576;  -30.490; -606.032; -576.942
755.837;  -39.213; -527.032; -695.942
756.097;  -28.261; -530.032; -564.943
756.358;  -54.034; -725.032; -770.943
756.618;  -48.132; -705.031; -641.943
756.879;   20.370; -254.031; -349.944
757.139; -121.803;-1098.031;-1116.944
757.400;  -57.752; -538.031; -553.945
757.660;   -5.750; -365.031; -401.945
757.920;   13.102; -266.030; -228.945
758.181;  -20.996; -468.030; -351.946
758.441;  -87.519; -870.030; -809.946
758.701;  -25.617; -308.030; -215.946
758.961;  -12.565; -220.030; -278.947
759.222;  -50.264; -574.029; -502.947
759.482;  -83.637; -683.029; -723.948
759.742;  -79.185; -706.029; -547.948
760.002;   12.817;  -83.029; -143.948
760.262;   22.419;   50.972;  182.051
760.522;  -39.429; -498.028; -574.949
760.782;  -47.152; -738.028; -612.949
761.042;  -13.325; -618.028; -573.950
761.302;   65.551;   55.972;  -18.950
761.562;   52.678; -164.027; -154.951
761.822;   92.780; -710.027; -551.951
762.082;  -28.893;-1104.027;-1093.951
762.342;   65.859; -328.027; -403.952
762.601;   85.486; -567.027; -506.952
762.861;  369.213; -281.026; -207.952
763.121;  426.740; -406.026; -411.953
763.381; 7269.966; -499.026; -485.953
763.640; 8765.318; -139.026; -307.954
763.900;  380.645; -242.026; -203.954
764.160;   98.747; -458.025; -491.954
764.419;   -5.376; -726.025; -782.955
764.679;  -68.749; -795.025; -726.955
764.939;   -8.197; -124.025; -210.955
765.198;  -59.046; -608.025; -563.956
765.458;  -77.569; -710.024; -612.956
765.717;  -75.442; -454.024; -590.957
765.976;  -40.140; -428.024; -411.957
766.236;  -77.813; -475.024; -610.957
766.495;   14.039;  260.977;   73.042
766.755;  -73.209;-1090.023; -987.958
767.014;   18.293; -594.023; -665.958
767.273;  -47.331; -373.023; -397.959
767.533;  -48.729; -228.023; -307.959
767.792;  -20.502; -151.022; -188.960
768.051;  -58.900; -228.022; -276.960
768.310;  -74.548; -546.022; -650.960
768.569;   -0.621; -161.022;    4.039
768.828;  -22.619; -285.022; -363.961
769.088; -112.893;-1050.021; -942.961
769.347;  -81.441; -755.021; -599.962
769.606;  -97.264; -876.021; -857.962
769.865; -104.312;-1016.021;-1033.963
770.124;   -6.460; -411.021; -336.963
770.383;  -36.183; -778.020; -910.963
770.641;    0.044; -398.020; -400.964
770.900;  -34.654; -953.020; -846.964
771.159;  -30.078; -851.020; -951.964
771.418;   -6.726; -917.020; -779.965
771.677;  124.901; -224.019; -293.965
771.936;  148.628; -794.019; -865.966
772.194; 1996.880; -465.019; -437.966
772.453;11375.157; -213.019; -391.966
772.712;  827.809;  416.982;  329.033
772.970;  131.461;   32.982;   63.033
773.229;   88.437;  -22.018;  102.033
773.488;  -73.361; -814.018; -770.968
773.746;   48.291;  296.982;  335.032
774.005;   10.018;  190.983;  -22.969
774.263;   10.845;  243.983;  177.031
774.522;  -41.978; -422.017; -548.969
774.780;  -67.126; -484.017; -417.970
775.039;  -81.125; -551.017; -531.970
775.297;  -20.323; -135.016; -351.970
775.555; -100.321; -489.016; -612.971
775.814; -124.394; -618.016; -570.971
776.072; -130.217; -749.016; -740.971
776.330; -105.165; -630.016; -520.972
776.589; -103.238; -703.015; -721.972
776.847; -118.661; -645.015; -624.973
777.105; -157.610;-1016.015;-1032.973
777.363;  -93.458; -459.015; -454.973
777.621; -123.531; -660.015; -717.974
777.879;  -32.304;  -42.014;   32.026
778.138;  -95.677; -554.014; -717.974
778.396; -108.325; -585.014; -526.975
778.654; -160.698;-1015.014; -970.975
778.912;  -64.021; -269.014; -371.976
779.170; -124.345; -880.013; -803.976
779.427; -150.868; -922.013; -897.976
779.685; -115.641; -880.013; -832.977
779.943;  -78.139; -654.013; -593.977
780.201; -161.387; -964.012; -883.978
780.459; -122.735; -651.012; -610.978
780.717;  -64.783; -440.012; -390.978
780.974; -109.582; -449.012; -490.979
781.232;  -65.955; -358.012; -338.979
781.490;  -75.353; -551.011; -472.979
781.747;  -91.351; -555.011; -476.980
782.005;   22.876;  462.989;  254.020
782.263; -166.897; -542.011;-1004.981
782.520;  -96.420; -326.011; -501.981
782.778; -165.243;-1013.010;-1051.981
783.035; -169.442; -962.010; -938.982
783.293;  -58.265; -248.010; -206.982
783.550;  -67.013; -134.010; -198.982
783.808; -121.311; -764.010; -776.983
784.065; -151.059; -745.009; -874.983
784.322;  -54.132;   25.991;  -86.984
784.580; -146.105; -915.009; -771.984
784.837;  -95.053; -392.009; -466.984
785.094; -139.877; -783.009; -762.985
785.352;  -67.050; -304.008; -404.985
785.609; -103.848; -934.008; -839.985
785.866;  -73.946; -345.008; -401.986
786.123;  -75.694; -639.008; -583.986
786.380;  -68.167; -665.008; -604.987
786.637;  -44.590; -225.007; -380.987
786.895;  -18.639; -456.007; -543.987
787.152;  -48.062; -135.007; -267.988
787.409;  -55.785; -123.007; -225.988
787.666;  -81.658; -299.006; -378.988
787.923;  -97.006; -616.006; -695.989
788.179;  -85.804; -551.006; -584.989
788.436; -103.227; -585.006; -585.990
788.693;  -18.425;  -92.006;  -87.990
788.950;  139.251; -125.005; -112.990
789.207;  235.153; -381.005; -372.991
789.464;  -38.520; -161.005; -301.991
789.720;   -8.868;  150.995;  110.009
789.977; -158.816;-1003.005; -671.992
790.234;  -34.264;   44.996;  -66.992
790.490; -140.437; -884.004;-1031.993
790.747;  -13.961;  -85.004;   22.007
791.004;  -24.784; -426.004; -348.993
791.260;  -71.707; -430.004; -560.994
791.517; -103.555; -843.003; -788.994
791.773;  -62.503; -379.003; -342.994
792.030; -103.401; -596.003; -660.995
792.286;  -97.799; -686.003; -636.995
792.543;  -16.222;  -74.002; -159.995
792.799;  -48.846; -584.002; -382.996
793.055; -148.219;-1179.002;-1210.996
793.312; -100.267; -827.002; -816.997
793.568;  -51.015; -746.002; -599.997
793.824;    7.837; -226.001; -284.997
794.081;   24.464; -447.001; -508.998
794.337;   68.591; -664.001; -561.998
794.593; 1236.143; -319.001; -271.999
794.849; 6855.444; -746.001; -772.999
795.105;  373.446; -270.000; -261.999
795.361;    6.898; -490.000; -457.000
795.617;  -41.025; -875.000; -945.000
795.873;  -54.425; -360.000; -407.000
796.129;  -29.125; -368.000; -306.000
796.385;  -21.075; -124.000; -156.000
796.641;   62.275;  412.000;  550.000
796.897;  -86.250; -666.000; -635.000
797.153;   68.100;  453.000;  357.000
797.409;  -87.000; -785.000; -868.000
797.665;  -65.650; -625.000; -732.000
797.921;  -79.775; -775.000; -762.000
798.176;  -47.925; -744.000; -747.000
798.432;  -44.825; -824.000; -596.000
798.688;  -63.975;-1174.000;-1078.000
798.943;   85.925; -165.000; -147.000
799.199;    1.075;-1005.000; -959.000
799.455;  249.325;  369.000;  316.000
799.710;  138.475; -813.000; -380.000
799.966;  300.375; -162.000; -160.000
800.221;  471.950; -638.000; -721.000
800.477;10031.750; -743.000; -710.000
800.732;10024.450; -773.000; -800.000
800.988;  655.725;  205.000;  -19.000
801.243; 1622.725; -454.000; -344.000
801.498; 7934.650; -814.000; -739.000
801.754;  478.175; -289.000; -163.000
802.009;   95.575; -257.000; -335.000
802.264;  -37.500; -967.000;-1033.000
802.520;   36.800;  222.000;   -3.000
802.775;  -36.725; -524.000; -359.000
803.030;   61.500;  395.000;  356.000
803.285;  -99.550; -840.000; -903.000
803.540;  -54.400; -686.000; -699.000
803.795;  -28.025; -648.000; -583.000
804.051;  -42.350; -279.000; -346.000
804.306;   24.250;  168.000;  128.000
804.561;  141.775;  451.000;  362.000
804.816;  138.500;  714.000;  861.000
805.071;   10.475; -185.000; -280.000
805.325;  230.400; -257.000; -427.000
805.580;  -92.525; -841.000; -877.000
805.835;  -11.225; -204.000; -297.000
806.090;  -79.150; -760.000; -676.000
806.345;  -11.825; -344.000; -264.000
806.600;  -35.050; -549.000; -632.000
806.854;  -17.275; -408.000; -538.000
807.109;  -16.925; -493.000; -577.000
807.364;   10.300; -407.000; -328.000
807.618;   -4.475; -415.000; -381.000
807.873;   67.550; -470.000; -494.000
808.128;  102.750; -257.000; -518.000
808.382;  127.550; -224.000; -332.000
808.637;   76.875; -440.000; -511.000
808.891;  182.000; -257.000; -180.000
809.146;  113.200; -902.000; -794.000
809.400;  289.575; -848.000; -923.000
809.654;  345.325; -779.000; -551.000
809.909;  525.650; -841.000; -927.000
810.163; 6164.475; -813.000; -651.000
810.418;18177.000; -940.000; -861.000
810.672; 1150.450; -685.000; -690.000
810.926;  751.825; -993.000; -973.000
811.180; 1383.250; -439.000; -372.000
811.434;31243.000;  240.000;  135.000
811.689;14334.425; -231.000; -365.000
811.943;  694.100; -936.000; -953.000
812.197;  334.500; -893.000; -671.000
812.451;  149.775; -379.000; -514.000
812.705;  -15.675; -809.000; -619.000
812.959;   -5.100; -263.000; -388.000
813.213;    0.125; -283.000; -209.000
813.467;   73.375;  470.000;  253.000
813.721; -100.025; -764.000; -792.000
813.975;  -95.375; -826.000; -877.000
814.229;   45.650;  430.000;  353.000
814.482;  -70.450; -517.000; -566.000
814.736; -122.525; -766.000; -744.000
814.990; -109.900; -779.000; -872.000
815.244;  -29.100; -228.000; -285.000
815.497;  -84.850; -636.000; -601.000
815.751;  -28.175; -141.000;   82.000
816.005;  -79.725; -470.000; -586.000
816.258;  -56.475; -510.000; -363.000
816.512;  -98.250; -693.000; -610.000
816.766;  -11.675;  121.000;  157.000
817.019;   21.150;  148.000;  149.000
817.273; -101.875;-1000.000; -802.000
817.526;  -38.500; -206.000; -173.000
817.779;  -41.375;-1049.000; -960.000
818.033;  -39.650; -693.000; -807.000
818.286; -120.650; -725.000; -792.000
818.540;  -91.950; -403.000; -403.000
818.793;  -72.325; -402.000; -489.000
819.046;  -96.350; -582.000; -520.000
819.299;  -31.150; -157.000; -166.000
819.553; -106.250; -552.000; -592.000
819.806; -157.400;-1016.000; -838.000
820.059;  -58.925; -334.000; -354.000
820.312;   27.475;  152.000;  185.000
820.565;  -15.050;  110.000;  -27.000
820.818;  -42.625;  -59.000; -173.000
821.071; -157.575;-1041.000; -957.000
821.324; -110.750; -536.000; -540.000
821.577; -100.275; -457.000; -483.000
821.830;  -62.150; -270.000; -172.000
822.083; -121.275; -733.000; -288.000
822.336;  -46.125; -261.000; -167.000
822.589; -142.725; -805.000; -688.000
822.842; -147.600; -875.000; -770.000
823.094; -167.225;-1076.000;-1114.000
823.347; -132.500; -925.000; -729.000
823.600;   16.875;  402.000;  187.000
823.853;  -54.625; -311.000; -267.000
824.105;  -74.175; -331.000; -575.000
824.358; -108.050; -617.000; -716.000
824.611;   29.900;  234.000;   40.000
824.863;  -49.275; -612.000; -591.000
825.116;   47.875;  -33.000;   27.000
825.368;   72.325; -366.000; -372.000
825.621;  169.425; -186.000; -240.000
825.873;   88.500; -704.000; -737.000
826.126;  541.450; -669.000; -641.000
826.378;11442.025; -389.000; -505.000
826.630; 3288.750; -890.000; -898.000
826.883;   67.725; -754.000; -693.000
827.135;   58.350; -279.000; -270.000
827.387;  -98.350; -893.000; -839.000
827.639;  -18.575;  -86.000;   32.000
827.892; -124.225; -742.000; -582.000
828.144; -127.825; -848.000; -804.000
828.396;  -30.450;  104.000;  -80.000
828.648;  -98.150; -440.000; -333.000
828.900; -145.750; -702.000; -795.000
829.152; -103.925; -684.000; -683.000
829.404;  -69.725; -215.000; -267.000
829.656;   -0.825;  321.000;  214.000
829.908;  -24.250;  393.000;  229.000
830.160; -163.125;-1064.000;-1047.000
830.412;  -82.175; -481.000; -430.000
830.664; -121.475; -557.000; -665.000
830.916;  -71.800; -268.000; -206.000
831.167; -172.050;-1073.000; -951.000
831.419; -122.800; -623.000; -566.000
831.671; -128.725; -764.000; -809.000
831.923;  -76.325; -311.000; -447.000
832.174;  -72.950; -273.000; -331.000
832.426; -121.650; -493.000; -582.000
832.678; -173.575;-1043.000;-1091.000
832.929; -163.225; -947.000; -935.000
833.181;  -48.950; -575.000; -677.000
833.432;  -64.250;  -59.000; -186.000
833.684;  -31.725;  112.000;  -27.000
833.935; -105.100; -610.000; -566.000
834.187; -118.625; -829.000; -823.000
834.438;  -45.000;  -58.000;  -25.000
834.689;  -42.775; -255.000; -123.000
834.941;  -55.750; -343.000; -244.000
835.192;  -86.775; -590.000; -533.000
835.443;  -96.200; -419.000; -506.000
835.695;  -17.600;  138.000;  -16.000
835.946;  -82.075; -608.000; -378.000
836.197; -107.625; -599.000; -622.000
836.448;  -94.750; -528.000; -395.000
836.699;  -55.775; -253.000; -341.000
836.950;    5.750;   72.000;    7.000
837.201; -144.125;-1003.000; -987.000
837.452;  -52.200; -356.000; -170.000
837.703; -118.300; -791.000; -737.000
837.954;  -25.950; -205.000; -365.000
838.205;  -76.950;-1029.000;-1008.000
838.456;  161.300; -196.000; -282.000
838.707;   13.150; -423.000; -519.000
838.958;   11.350; -634.000; -647.000
839.209;  309.650;   18.000;   40.000
839.460;  129.225; -439.000; -201.000
839.710;  178.375; -135.000; -297.000
839.961;  433.050;  730.000;  612.000
840.212;  353.875; -382.000; -497.000
840.462; 1087.000; -328.000; -277.000
840.713;17443.775; -571.000; -536.000
840.964; 8066.350;  -62.000; -143.000
841.214;  549.850; -384.000; -624.000
841.465;  573.425; -214.000; -141.000
841.715;  523.725; -417.000; -380.000
841.966;  675.175; -746.000; -685.000
842.216; 8401.050; -330.000; -431.000
842.466;36288.700; -169.000; -313.000
842.717; 2309.775; -964.000; -952.000
842.967;  321.900; -635.000; -641.000
843.217;  296.500;   20.000;   28.000
843.468;   86.200; -104.000; -132.000
843.718;  -36.700; -718.000; -726.000
843.968;  -91.225; -837.000; -765.000
844.218;    8.100; -315.000; -262.000
844.469;  -43.875; -577.000; -561.000
844.719; -100.100; -537.000; -682.000
844.969; -101.200; -550.000; -580.000
845.219; -129.325; -814.000; -862.000
845.469;  -84.075; -392.000; -342.000
845.719; -123.450; -792.000; -884.000
845.969;   -8.600;  119.000;  174.000
846.219; -110.475; -738.000; -720.000
846.469;   16.500;  464.000;  432.000
846.718;  -39.850; -115.000;   31.000
846.968; -132.825; -827.000; -827.000
847.218;  -39.575; -224.000; -371.000
847.468; -106.250; -586.000; -555.000
847.718; -129.725; -827.000; -798.000
847.967; -138.450; -826.000; -915.000
848.217;  -72.350; -449.000; -569.000
848.467;  -78.325; -405.000; -376.000
848.716; -107.000; -708.000; -725.000
848.966;   -7.550; -372.000; -358.000
849.215;  -45.550; -428.000; -419.000
849.465; -100.350; -785.000; -615.000
849.714; -125.150;-1132.000;-1150.000
849.964;  -67.450; -551.000; -613.000
850.213;  -16.125; -393.000; -355.000
850.463;   76.525;  137.000;  340.000
850.712;    7.200; -542.000; -567.000
850.961;   21.650; -739.000; -678.000
851.211;  111.250; -513.000; -504.000
851.460;  175.200; -635.000; -650.000
851.709;  563.150;  -25.000;   18.000
851.958; 9745.175; -912.000; -750.000
852.208;13735.400; -859.000; -879.000
852.457;  516.725; -181.000;  -13.000
852.706;   78.925; -791.000; -823.000
852.955;   27.975; -507.000; -528.000
853.204;  -60.400; -521.000; -461.000
853.453;  -81.100; -418.000; -458.000
853.702; -131.500; -660.000; -750.000
853.951; -104.775; -532.000; -520.000
854.200; -109.400; -613.000; -562.000
854.449; -139.875; -695.000; -661.000
854.698;  -94.525; -340.000; -279.000
854.946;  -61.275; -181.000; -284.000
855.195; -146.250; -843.000; -868.000
855.444;  -99.025; -395.000; -420.000
855.693; -124.675; -345.000; -432.000
855.941; -110.800; -387.000; -516.000
856.190;  -50.900; -256.000; -382.000
856.439; -126.600; -652.000; -703.000
856.687;  -65.475;  -99.000;  -72.000
856.936; -120.875; -621.000; -323.000
857.184; -169.000;-1067.000;-1020.000
857.433; -107.250; -423.000; -512.000
857.681; -154.600; -989.000; -953.000
857.930;  -74.100; -282.000; -433.000
858.178; -163.700; -856.000; -929.000
858.427; -147.900; -802.000; -781.000
858.675; -121.825; -377.000; -544.000
858.923; -109.450; -527.000; -819.000
859.172; -182.175;-1094.000;-1070.000
859.420;  -98.950; -339.000; -239.000
859.668; -121.500; -624.000; -628.000
859.916;  -23.650;  109.000;  115.000
860.164; -108.950; -699.000; -603.000
860.413;  267.150; -878.000; -696.000
860.661;  268.625; -709.000; -577.000
860.909;  -82.275; -339.000; -325.000
861.157;  -90.150; -277.000; -444.000
861.405; -128.725; -534.000; -670.000
861.653;    3.675;  310.000;  310.000
861.901;  165.450; -543.000; -613.000
862.149;   35.975; -801.000; -824.000
862.396;  -84.600; -297.000; -187.000
862.644;  -92.400; -368.000; -347.000
862.892;  -22.300;   98.000;  138.000
863.140; -125.125; -549.000; -530.000
863.388; -159.325; -815.000; -759.000
863.635; -130.950; -642.000; -601.000
863.883;  -27.875;  231.000;  190.000
864.131;  -86.875; -288.000; -357.000
864.378; -130.325; -675.000; -540.000
864.626;  -98.525; -347.000; -415.000
864.873; -110.550; -556.000; -505.000
865.121; -138.350; -714.000; -799.000
865.368;  -54.900; -173.000;   75.000
865.616;  -46.600;  -33.000;  -40.000
865.863;  -84.725; -462.000; -506.000
866.111;  -98.125; -795.000; -824.000
866.358;   10.900; -426.000; -420.000
866.605; 2093.250;  -64.000; -804.000
866.853; 2461.975; -621.000; -537.000
867.100;  -14.800; -728.000; -775.000
867.347;  -92.925; -672.000; -611.000
867.594;  -87.450; -740.000; -714.000
867.841;   92.800;   97.000;   17.000
868.089; -152.000; -746.000; -698.000
868.336;  -96.250; -477.000; -420.000
868.583; -140.275; -637.000; -741.000
868.830;  -60.500; -131.000; -170.000
869.077; -158.350; -859.000; -787.000
869.324; -119.525; -502.000; -458.000
869.571; -113.700; -398.000; -430.000
869.818; -121.200; -485.000; -439.000
870.065; -101.650; -439.000; -513.000
870.311; -109.800; -456.000; -542.000
870.558; -100.375; -332.000; -311.000
870.805;  -86.550; -320.000; -384.000
871.052; -105.650; -494.000; -369.000
871.298;  -61.000; -204.000; -131.000
871.545;  -77.725; -151.000; -185.000
871.792;  -90.975; -173.000; -222.000
872.038;  -65.725;   43.000; -126.000
872.285; -108.975; -496.000; -387.000
872.532; -100.050; -357.000; -387.000
872.778;   10.450;  556.000;  403.000
873.025;  -92.425; -384.000; -359.000
873.271;   17.325;  501.000;  578.000
873.517;  -15.275; -133.000; -209.000
873.764;  -26.525; -193.000;  -80.000
874.010;  -64.875; -143.000; -230.000
874.257;  -48.575;  123.000;   90.000
874.503; -128.250; -579.000; -479.000
874.749;  -79.875;   31.000;  275.000
874.995;  -68.750;  -80.000;  -20.000
875.242; -120.225; -540.000; -478.000
875.488; -100.525; -414.000; -439.000
875.734;  -59.175; -106.000; -234.000
875.980;  158.675; -872.000;-1032.000
876.226;  398.175; -157.000; -255.000
876.472;   -2.750;  343.000;  237.000
876.718;  -37.800;  184.000;  158.000
876.964;  -49.475;   56.000;   55.000
877.210; -144.450; -547.000; -677.000
877.456; -125.975; -630.000; -557.000
877.702; -185.175; -821.000; -832.000
877.948; -110.175; -377.000; -497.000
878.193;    4.350;  361.000;  255.000
878.439;  -76.700; -487.000; -472.000
878.685; -114.000; -272.000; -343.000
878.931; -130.425; -618.000; -676.000
879.176;  -92.275; -201.000; -201.000
879.422; -179.550; -933.000; -820.000
879.668;   57.625;   10.000;   79.000
879.913;  143.525;   53.000;  137.000
880.159;  -68.025; -112.000;  -17.000
880.404;  -59.475; -152.000; -162.000
880.650;  -47.250;   91.000;  141.000
880.895; -159.150; -670.000; -710.000
881.141; -115.650; -454.000; -428.000
881.386; -141.850; -503.000; -658.000
881.631;  -86.275; -311.000; -166.000
881.877;  -44.825;  112.000;  -13.000
882.122; -136.100; -684.000; -600.000
882.367;  -76.150; -136.000; -186.000
882.612;  -75.525;  -80.000; -176.000
882.858; -166.425; -877.000; -823.000
883.103; -105.825; -297.000; -267.000
883.348; -130.775; -759.000; -852.000
883.593; -138.750; -677.000; -602.000
883.838;  -53.425; -311.000;  -24.000
884.083;   24.100;  353.000;  288.000
884.328;  -97.825; -564.000; -545.000
884.573;  -52.500; -196.000; -143.000
884.818;  185.300; -694.000; -531.000
885.063;  216.875; -348.000; -315.000
885.308;  -86.150; -475.000; -398.000
885.553;  -28.250;  245.000;  325.000
885.797; -121.800; -545.000; -615.000
886.042;  -56.550;    8.000;   58.000
886.287;  -89.675; -253.000; -211.000
886.532;  -56.250;   26.000;  204.000
886.776;  -94.750; -407.000; -525.000
887.021; -139.050; -621.000; -574.000
887.265; -152.925; -685.000; -689.000
887.510; -136.225; -557.000; -496.000
887.755;  -93.425; -194.000; -164.000
887.999; -135.025; -552.000; -575.000
888.244;  -59.625;  -58.000;  161.000
888.488;   -2.550;  371.000;  393.000
888.732; -111.300; -368.000; -520.000
888.977; -121.500; -622.000; -567.000
889.221; -151.900; -683.000; -659.000
889.465; -124.050; -422.000; -566.000
889.710;  -78.475;  -56.000; -299.000
889.954;   13.950;  579.000;  467.000
890.198; -141.600; -584.000; -707.000
890.442; -151.525; -716.000; -712.000
890.687; -152.500; -800.000; -753.000
890.931; -105.025; -273.000; -210.000
891.175; -128.875; -502.000; -500.000
891.419;  -90.225; -105.000; -110.000
891.663;  -82.275; -239.000; -112.000
891.907; -175.175; -801.000; -545.000
892.151; -178.100; -920.000; -815.000
892.395; -119.950; -274.000; -387.000
892.638;  -23.525;  408.000;  291.000
892.882; -161.550; -780.000; -867.000
893.126;   22.975;  758.000;  558.000
893.370;  -86.625; -167.000; -168.000
893.614; -144.250; -714.000; -715.000
893.857; -106.350; -183.000; -197.000
894.101; -132.925; -527.000; -631.000
894.345;  -71.750;  300.000;  150.000
894.588;   21.350;  569.000;  380.000
894.832;  -88.425; -178.000;  -84.000
895.075;  -72.225;   15.000;  -92.000
895.319; -127.675; -552.000; -420.000
895.563; -107.850; -413.000; -353.000
895.806; -148.025; -628.000; -741.000
896.049;  -58.100; -576.000; -368.000
896.293;   95.400;  527.000;  405.000
896.536;  -60.500; -465.000; -468.000
896.779;  -66.550; -149.000;   -1.000
897.023; -138.550; -751.000; -714.000
897.266;  -36.725;  325.000;  269.000
897.509; -168.075; -900.000; -901.000
897.752;  -54.800;  149.000;  171.000
897.996; -191.200; -972.000; -864.000
898.239;  -54.175;  168.000;  102.000
898.482; -127.725; -431.000; -453.000
898.725;  -31.975;  101.000;   53.000
898.968; -139.850; -609.000; -744.000
899.211; -115.300; -513.000; -361.000
899.454; -130.800; -633.000; -539.000
899.697;  -64.225;   90.000;  -43.000
899.940; -160.850; -761.000; -757.000
900.182; -105.225; -335.000; -405.000
900.425;  -96.775; -150.000; -298.000
900.668;  -38.050;  491.000;  350.000
900.911;  -99.725; -292.000; -345.000
901.154;  -59.025;  141.000;   -3.000
901.396; -134.525; -407.000; -412.000
901.639; -146.325; -430.000; -496.000
901.882; -182.275; -790.000; -809.000
902.124;  -98.575;  -29.000; -143.000
902.367; -105.750; -315.000; -361.000
902.609; -146.750; -476.000; -453.000
902.852; -102.975; -108.000; -260.000
903.094; -119.225; -458.000; -337.000
903.337;  -67.675;  -26.000;   53.000
903.579; -108.575; -228.000; -441.000
903.821; -155.325; -597.000; -744.000
904.064;  -75.500;   85.000;  127.000
904.306;  -84.925; -126.000; -166.000
904.548; -106.450; -152.000; -366.000
904.790; -101.175; -195.000; -340.000
905.033; -130.700; -625.000; -577.000
905.275; -126.150; -513.000; -524.000
905.517;   43.100;  468.000;  256.000
905.759;  -81.000; -667.000; -761.000
906.001; -105.075; -322.000; -369.000
906.243;  -62.000; -162.000; -224.000
906.485;  113.175; -265.000; -207.000
906.727;  133.375; -499.000; -542.000
906.969;  -40.575;  -30.000; -135.000
907.211;  128.000; -316.000; -382.000
907.453;  276.075; -188.000; -237.000
907.695;   22.875; -158.000; -385.000
907.936;   32.250;  818.000;  706.000
908.178;  -58.550;   92.000; -135.000
908.420;  -82.600; -111.000; -162.000
908.662; -131.025; -633.000; -682.000
908.903;  -95.075; -208.000; -123.000
909.145;  -50.450; -240.000; -305.000
909.386;   -1.550;  315.000;  280.000
909.628;   31.550;  363.000;  397.000
909.870;    2.350;   29.000;  264.000
910.111;  -77.675; -809.000; -949.000
910.353;   24.550; -123.000; -161.000
910.594;  -10.050; -574.000; -606.000
910.835;   82.000; -265.000; -326.000
911.077;  163.500; -503.000; -604.000
911.318;  293.900; -505.000; -471.000
911.559;  451.950; -577.000; -880.000
911.801; 1324.500; -284.000; -280.000
912.042; 9931.050;  -50.000; -159.000
912.283;28069.950;  404.000;  371.000
912.524; 4885.575; -396.000; -457.000
912.765;  538.725; -193.000;   79.000
913.006;  254.750; -307.000; -338.000
913.247;   76.075; -270.000; -290.000
913.488;   11.525;  -43.000;   30.000
913.729;  -93.700; -373.000; -373.000
913.970;  -62.575;  -96.000; -292.000
914.211;  -77.100; -160.000; -198.000
914.452;  -61.250; -118.000;  -11.000
914.693;   -8.150;  510.000;  592.000
914.934;   12.075;  510.000;  440.000
915.175;  -71.575;   53.000;  -95.000
915.415;  -72.775; -137.000;   27.000
915.656;  -54.775;  -28.000;  192.000
915.897;  -86.600; -252.000;  -82.000
916.137;  -61.250;   74.000;   -9.000
916.378; -133.350; -573.000; -517.000
916.619; -101.025; -159.000;  -63.000
916.859;  -25.300;  303.000;  330.000
917.100;  125.575; 1655.000; 1070.000
917.340;   30.150;  930.000;  728.000
917.581;   43.075;  965.000;  789.000
917.821;  -27.375; -171.000;  143.000
918.061;   19.800; -199.000;  -72.000
918.302;  -62.050; -152.000; -211.000
918.542;  -34.725;  -22.000;    3.000
918.782;   51.700;  369.000;  377.000
919.023;  116.975;  360.000;  427.000
919.263; 1285.700; 8131.000;  202.000
919.503; 1175.250; -137.000;  -54.000
919.743;  677.200;  390.000;  266.000
919.983;  301.700; -134.000;  -26.000
920.223;   95.875;  135.000;   14.000
920.463;  136.100;  631.000;  554.000
920.703;  146.475;   84.000;   39.000
920.943;  178.175; -110.000;   90.000
921.183;  218.775; -414.000; -405.000
921.423;  504.100;  307.000;  546.000
921.663;  734.425; -174.000; -257.000
921.903; 1557.250;  237.000;  173.000
922.143; 8306.200;  372.000;  389.000
922.383;33608.500;  158.000;  115.000
922.622;12774.075; -120.000;  -15.000
922.862; 1347.900;  796.000;  785.000
923.102;  501.100;  -51.000;   33.000
923.341;  209.875;   59.000;   74.000
923.581;   95.075;  450.000;  360.000
923.821;   35.225;  301.000;  398.000
924.060;   13.550;  351.000;  193.000
924.300;  -68.700;  -16.000; -128.000
924.539;   -5.475;  584.000;  473.000
924.779;   18.825;  812.000;  597.000
925.018;  -37.025;  247.000;  353.000
925.257;  -10.625;  595.000;  666.000
925.497;  -28.225;  447.000;  412.000
925.736;  -84.875;  -35.000;  102.000
925.975;    7.225;  687.000;  669.000
926.214;   25.525;  907.000;  850.000
926.454;   15.875;  706.000;  757.000
926.693;  -31.050;  419.000;  543.000
926.932;   56.800; 1021.000;  825.000
927.171;   51.600; 1107.000; 1044.000
927.410;   71.550; 1144.000;  967.000
927.649;   16.900;  924.000;  742.000
927.888;    0.675;  590.000;  564.000
928.127;   -9.375;  680.000;  678.000
928.366;   30.050;  842.000;  826.000
928.605;   24.075;  831.000;  737.000
928.844;  227.675; 1451.000; 1393.000
929.083;  609.000;  770.000;  613.000
929.321;  361.475; 1335.000; 1359.000
929.560;   94.600; 1158.000; 1122.000
929.799;  -14.750;  574.000;  475.000
930.038;   71.700; 1025.000; 1394.000
930.276;  -43.225;  334.000;  397.000
930.515;   -1.225;  827.000;  681.000
930.753;   -2.500;  614.000;  589.000
930.992;  -14.125;  664.000;  717.000
931.230;    5.050;  847.000;  847.000
931.469;  154.125; 2162.000;  892.000
931.707;   73.150;  840.000;  751.000
931.946;   65.700; 1278.000; 1344.000
932.184;   55.725; 1437.000; 1175.000
932.423;   38.100; 1265.000;  963.000
932.661;   88.450; 1296.000; 1428.000
932.899;   12.175;  987.000;  821.000
933.137;   19.325;  754.000;  564.000
933.376;  137.600; 1664.000; 1335.000
933.614;  162.950; 1759.000; 1196.000
933.852;   55.075; 1357.000; 1171.000
934.090;  132.050; 1722.000; 1747.000
934.328;  109.725; 1252.000; 1457.000
934.566;  102.450; 1431.000; 1110.000
934.804;  126.800; 1263.000; 1309.000
935.042;  449.150; 1861.000; 1850.000
935.280; 1718.950; 2088.000; 2063.000
935.518; 1796.375; 2113.000; 2007.000
935.756;  396.500; 2481.000; 2316.000
935.994;  173.900; 1808.000; 1751.000
936.231;  340.425; 2890.000; 2950.000
936.469;  199.225; 2367.000; 2378.000
936.707;  173.550; 2220.000; 2167.000
936.945;  232.125; 2825.000; 2882.000
937.182;  206.825; 2679.000; 2741.000
937.420;  294.850; 3602.000; 3031.000
937.657;  411.475; 3365.000; 3478.000
937.895;  374.000; 3331.000; 3488.000
938.133;  329.325; 3540.000; 3528.000
938.370;  354.375; 3896.000; 4191.000
938.607;  401.175; 4488.000; 4205.000
938.845;  548.675; 5587.000; 5549.000
939.082;  475.475; 5387.000; 5177.000
939.320;  525.300; 5799.000; 5728.000
939.557;  637.200; 6549.000; 6491.000
939.794;  717.725; 7285.000; 7097.000
940.031;  905.225; 8421.000; 8368.000
940.269; 1112.225; 9552.000; 9107.000
940.506; 1154.675;10901.000;10507.000

