
Integration time [ms]: 100.000
Averaging Nr. [scans]: 40
Smoothing Nr. [pixels]: 0
Data measured with spectrometer [name]: 2101013U2
Wave   ;Sample   ;Dark     ;Reference
[nm]   ;[counts] ;[counts] ;[counts] 

394.013;   60.461; -450.257; -315.536
394.305;  222.209; -461.258; -419.536
394.596; 1185.352; -676.269; -527.514
394.887; 2864.219; -796.268; -654.518
395.178; 1089.476;  145.736;   11.476
395.470;   77.087; -210.263; -356.526
395.761;  210.809;  305.734;  394.479
396.052;  344.522; -545.284; -306.489
396.343;  331.894; -557.276; -454.503
396.634;  106.637; -200.279; -290.497
396.926;  122.766; -618.268; -565.517
397.217;  107.049;   11.725;  -17.504
397.508;   53.940; -366.273; -154.507
397.799;   43.362; -555.279; -571.497
398.090;   21.131; -973.280; -902.495
398.381;  119.694;   11.708;  -11.473
398.672;  -13.630; -585.292; -742.473
398.963;   47.918; -348.279; -373.498
399.254;  106.530;   54.709; -209.475
399.545;  -30.369;-1017.266; -883.520
399.836;   62.058; -407.277; -343.501
400.127;   42.319; -205.295; -209.468
400.418;   50.260; -423.274; -392.506
400.709;   62.768; -359.281; -333.493
401.000;   53.259; -268.291; -309.476
401.290;   92.354;  225.698;  115.545
401.581;   56.904; -166.286; -228.485
401.872;   15.165; -542.298; -486.462
402.163;   53.912; -313.296; -252.467
402.454;   80.530; -123.291; -163.475
402.744;   88.853; -844.297; -813.465
403.035;  406.085; -226.293;  -86.471
403.326;  540.573; -366.292; -384.474
403.617;  357.385;  204.701;  165.539
403.907;  265.703; -593.283; -679.490
404.198; 2525.006; -545.307; -599.446
404.489; 6516.933; -618.283; -588.491
404.779; 2093.232; -618.302; -660.456
405.070;  246.585;  -67.304; -174.451
405.360;  365.612; -259.293; -238.472
405.651;  379.619;  125.699;   98.542
405.942;  144.274;  209.714;  127.516
406.232;  266.164; -432.285; -413.487
406.523;  450.955;  641.706;  758.530
406.813;   85.776; -579.286; -644.484
407.104;  327.743;  261.708;  144.527
407.394;  180.411; -604.299; -591.462
407.685;  154.913;  336.715;  222.513
407.975;   57.631; -400.283; -382.490
408.265;  109.395; -134.289; -190.478
408.556;   69.527; -472.291; -459.475
408.846;  151.805;  474.706;  429.530
409.137;   85.729;   -1.288; -216.480
409.427;   39.814; -193.285; -271.487
409.717;   41.794; -776.273; -692.508
410.007;  144.757;    4.715; -170.486
410.298;  105.322; -360.295; -342.469
410.588;   63.736; -495.285; -510.486
410.878;   43.215; -792.287; -873.482
411.168;  120.343; -481.298; -478.463
411.459;  133.601; -295.283; -242.489
411.749;   58.176; -609.292; -507.474
412.039;   70.427; -755.289; -386.480
412.329;  204.501;   40.722;  132.501
412.619;  191.152;  -62.286; -148.485
412.909;  356.498;  639.711;  594.521
413.199;  343.181; -130.280; -251.495
413.490;  382.513;  521.710;  352.523
413.780;  149.385;-1013.279; -913.496
414.070;  320.020;  -46.276;  235.497
414.360;  369.447; -729.278; -666.498
414.650;  415.236; -726.288; -688.482
414.940;  574.260; -538.280; -441.496
415.230;  961.958;   50.712;   74.519
415.520; 6371.751;  155.730;   66.486
415.809;25262.167; -305.281; -125.493
416.099;19186.710; -388.277; -229.501
416.389; 5395.707;  435.726;  236.494
416.679; 3143.841;   91.738;   85.473
416.969;  564.395; -527.287; -503.483
417.259;  495.012;  341.721;  171.503
417.549;  712.691;  522.718;  318.508
417.838; 1738.993; -205.268; -147.518
418.128; 5741.769;  650.710;  492.522
418.418; 4749.600; -491.272; -579.509
418.708; 3204.658;    9.726;  -48.506
418.997;12280.303; -474.275; -480.505
419.287;12632.040; -733.273; -790.507
419.577;12008.050; -160.283; -123.489
419.866;40081.883; -588.277; -498.501
420.156;40667.472; -242.270;  -55.513
420.446; 7072.808; -112.263;  -26.526
420.735;  866.940; -376.271; -446.512
421.025;  819.446; 1830.722;  315.502
421.314;  659.188; -203.271; -226.512
421.604; 1310.061;   89.732;  233.484
421.893;  773.410; -705.271; -602.511
422.183;  235.833; -487.263; -461.526
422.472;  395.211;  -36.271; -107.511
422.762;  444.287; -416.266; -379.521
423.051;  259.671; -916.276; -916.503
423.341;  308.192; -491.273; -439.507
423.630;  429.318; -121.265;   15.477
423.919;  388.777;   58.725;   49.495
424.209;  390.464;  -31.263;   56.473
424.498;  516.916;   68.732;  161.483
424.787; 1134.222; -535.267; -601.518
425.077; 3449.167;   34.735;   29.478
425.366; 4793.745; -734.262; -744.528
425.655;10200.417;  639.727;  259.493
425.945;22957.904; -313.247; -268.554
426.234;12463.544;  117.741;  300.467
426.523; 5299.074;  -86.259; -350.534
426.812; 7255.408;  107.734;  159.480
427.101;10729.432; -127.269; -323.515
427.390;13282.051;  -55.270;  -86.514
427.680; 2836.694; -624.257; -411.538
427.969;  463.981; -330.255; -301.540
428.258;  332.486; -385.257; -477.536
428.547;  524.905;  449.728;  397.490
428.836; 1205.247; -421.253; -398.543
429.125; 1699.776; -199.259;  -72.534
429.414;  809.796; -330.251; -294.548
429.703; 3274.171; -231.251; -213.548
429.992; 9846.674; -938.250; -828.549
430.281; 6276.601; -397.264; -331.524
430.570;  590.311;  -21.252;   32.454
430.859;  554.023;  279.741;  352.466
431.148;  443.299;  636.752;  631.446
431.437;  283.635;  391.748;  367.454
431.725;  169.912; -544.257; -481.536
432.014;  129.305; -845.253; -756.545
432.303;  395.478; -149.239; -105.569
432.592;  611.633; -460.263; -178.525
432.881; 1107.951; -601.248; -437.554
433.169; 6467.906; -343.255;  -61.540
433.458;13259.813;  445.765;  540.424
433.747; 5384.501; -397.261; -289.529
434.036;  885.828; -275.242; -280.564
434.324; 2151.562; -395.249; -379.551
434.613; 3790.946;   40.757;  159.437
434.902; 1206.818;  333.760;  439.433
435.190;  511.302;   75.761;  295.431
435.479;  284.977;  -52.245;   83.441
435.767;  103.811; -411.244; -427.561
436.056;  206.848; -340.242; -294.563
436.345;  395.370; -372.240; -223.568
436.633;  378.907;   60.750;  383.450
436.922;  265.447;  208.760;  414.432
437.210;  533.778; -194.236;    1.426
437.499; 1658.986; -583.235; -432.576
437.787; 1846.927; -339.236;  -10.574
438.075;  484.082;   56.761;  162.430
438.364;  686.285;  -44.238;  250.429
438.652;  399.694; -286.226; -138.592
438.941;  127.381;    3.770;  269.415
439.229;   10.083; -665.252; -466.545
439.517;   29.345; -160.234;  -85.577
439.806;    0.760; -501.225; -290.595
440.094;  160.503;  377.766;  650.421
440.382;  173.757; -653.233; -302.580
440.670;  189.736; -361.235; -285.576
440.959;   25.028; -347.223; -170.599
441.247;   46.693; -151.229; -109.587
441.535;   91.593; -266.235;   31.423
441.823;   39.725; -497.234; -305.578
442.111;  178.023;  173.771;  327.412
442.400;  499.552; -628.245; -335.559
442.688; 1236.702; -111.234; -620.579
442.976;  879.019; -786.213; -450.617
443.264;   94.967; -324.224; -364.597
443.552;   99.920; -258.226;   51.408
443.840;  165.642;  602.765;  876.423
444.128;   94.781;  265.767;  269.420
444.416;   18.675; -694.228; -312.588
444.704;   20.934; -465.219;  -92.605
444.992;   63.998;   -0.226;  240.407
445.280;   38.332; -517.230;  -94.585
445.568;   31.173; -694.212; -396.618
445.856;  298.617; -174.221;  357.398
446.143;  669.755;  -54.220;   -7.604
446.431;  570.879;  -25.228;  625.411
446.719;  230.754;  489.783;  675.391
447.007;  188.226;  481.769;  705.416
447.295;  167.975;  597.777;  871.402
447.583;   86.266; -464.229;  -34.587
447.870;  145.814; -434.221; -202.601
448.158;  387.856; -104.230;  129.415
448.446;  302.406; -800.219; -338.604
448.733;  152.168;   13.776;  269.403
449.021;  245.572;   60.788;  341.382
449.309;  166.238; -296.210;  208.379
449.596;  227.025;  128.783;   59.392
449.884;  149.282; -571.222; -325.600
450.172;  183.135; -756.227; -406.590
450.459;  462.102;  645.786;  780.387
450.747; 2511.323; -411.218; -147.608
451.034; 8046.130;  493.772;  889.411
451.322; 6569.180; -413.214; -170.614
451.609;  531.295;  292.777;  508.403
451.897;  653.703; -550.203; -183.634
452.184; 1884.050; -622.223; -400.598
452.472; 1791.360;   97.792;  269.375
452.759;  350.807;  512.781;  864.395
453.047;  118.645; -407.212; -125.617
453.334;   71.690; -732.219; -216.606
453.621;   74.832; -438.214; -161.615
453.909;  102.720;   13.796;  384.368
454.196;  104.217; -299.199; -123.641
454.483;  191.816;  317.798;  540.364
454.771;  125.238; -215.208;  196.374
455.058;   35.641; -316.207;  102.374
455.345;  111.374;   71.807;  344.347
455.632;   77.270; -128.207;  235.373
455.919;   43.290;  -82.196;  182.354
456.207;  -66.904; -774.198; -450.642
456.494;   -9.146; -475.200;  -66.639
456.781;    8.162; -399.202; -198.635
457.068;   51.402; -253.206;  -29.628
457.355;   -1.522; -698.206; -401.629
457.642;   -5.267; -552.205; -290.630
457.929;   11.214; -778.194; -417.651
458.216;   65.445; -575.212; -354.617
458.503;  251.744; -173.193;  -19.652
458.790;  255.711; -864.208; -630.625
459.077;  264.467;  -77.202;  110.364
459.364;  826.507; -350.195; -210.649
459.651; 1760.299;  -46.206;  220.372
459.938;  813.501; -864.209; -665.623
460.225;  128.070;  132.799;  276.363
460.512;  -49.563; -836.197; -688.645
460.799;   83.547;  -32.218;  320.392
461.086;   68.459; -370.200; -251.640
461.372;   34.597; -509.198; -279.642
461.659;  116.116; -165.196;  108.354
461.946;   59.868; -445.193;  -54.651
462.233;  231.706;  842.800;  888.361
462.519;  345.953; -814.201; -464.639
462.806; 1066.662; -768.197; -497.645
463.093;  916.739; -445.191;  -66.656
463.380;   -7.443; -920.186; -824.664
463.666;   48.589; -259.197;  -18.646
463.953;   90.702; -406.195; -243.648
464.239;  189.827; -173.195;  -77.648
464.526;  397.038;  413.806;  743.350
464.813;  326.926; -565.190; -304.658
465.099;  343.694;  606.807;  607.348
465.386;  308.073;  903.807;  921.348
465.672;   36.713; -694.197; -522.645
465.959;   24.970; -598.188; -520.662
466.245;   11.573; -468.193; -359.652
466.532;   88.200; -109.195;   63.352
466.818;   68.532; -357.186; -216.664
467.104;    3.623; -488.182; -415.672
467.391;  -14.972; -628.189; -459.658
467.677;   37.286; -289.186;    9.335
467.964;   16.685; -682.189; -471.660
468.250;   65.063; -331.186; -160.665
468.536;   91.280;   90.811;  180.341
468.822;  -29.099; -821.184; -574.668
469.109;  145.832;  351.827;  471.311
469.395;  189.808;  729.808;  787.346
469.681;  179.833;   46.811;  156.341
469.967; 1302.162; -699.188; -382.660
470.254; 2872.471; -494.188; -306.662
470.540; 1766.065; -601.196; -476.646
470.826;  263.260; -488.181; -397.675
471.112;  306.154;  288.816;  113.331
471.398;   87.609; -253.183;  -58.670
471.684;   34.514; -626.177; -447.680
471.970;    7.089; -918.180; -981.675
472.256;   21.782; -521.192; -441.654
472.542;   30.268; -499.171; -434.691
472.828;   16.619; -743.182; -607.672
473.114;   43.413; -380.166; -283.700
473.400;   15.006; -504.175; -293.684
473.686;   27.645; -452.166; -400.701
473.972;   45.821; -230.174; -131.687
474.258;  -29.518; -925.173; -843.689
474.544;  196.231; -183.178;   -2.679
474.830;  329.908;  -65.175;   45.316
475.116;  510.353; -123.190; -196.658
475.401;  699.641; -558.180; -467.676
475.687;  196.265; -725.180; -718.676
475.973;    6.852; -673.181; -770.673
476.259;  224.385;  736.825;  764.315
476.544;  390.847; -539.176; -437.682
476.830;  846.539; -398.172; -322.690
477.116;  748.196; -430.177; -336.682
477.401;  129.616;  346.820;  358.324
477.687;   -8.544; -289.175; -405.684
477.973;   28.381;   21.819;   28.326
478.258;    0.691; -448.163; -348.706
478.544;   47.019;   21.815;   61.334
478.829;  -46.426; -818.171; -738.692
479.115;  -53.461; -749.172; -651.690
479.401;  -17.208; -444.174; -449.686
479.686;   32.589; -253.180;  -74.676
479.972;  -27.014; -886.178; -776.680
480.257;   35.515; -258.166;  -65.700
480.542;    4.478; -614.170; -469.693
480.828;  208.855; 1288.824; 1392.317
481.113;  -31.923; -464.176; -426.683
481.399;  -22.584; -236.161; -202.711
481.684;  -57.611; -620.166; -462.700
481.969;    8.755; -158.159;  -73.713
482.255;   -1.186; -439.169; -285.695
482.540;    6.686; -569.178; -441.680
482.825;    8.177; -395.187; -404.663
483.110;   92.917;  -85.169; -105.696
483.396;  209.927; -840.157; -652.718
483.681;  513.422;  543.826;  730.313
483.966;  165.273; -696.160; -700.712
484.251;    0.895; -404.174; -310.687
484.536;    7.200; -356.165; -378.703
484.822;   10.324; -205.173; -218.687
485.107;  -31.309; -599.152; -502.726
485.392;  106.531;  662.836;  541.296
485.677;   74.728;  354.832;  163.302
485.962;   84.674;  160.843;  270.283
486.247;   93.949;  -14.162;   -8.707
486.532;   53.541; -178.166; -325.701
486.817;  160.110;  381.839;  431.291
487.102;  116.649; -453.154; -514.722
487.387;  705.704; -637.156; -652.718
487.672; 1231.562; -154.164;  -38.705
487.957;  764.167; -394.160; -286.711
488.241;  214.309; -290.150; -314.729
488.526;  786.018; -280.152; -148.726
488.811; 1271.938; -881.177; -818.680
489.096;  939.152; -666.154; -702.723
489.381;  505.064;    3.847;  162.275
489.666;  385.665; -428.161; -510.710
489.950;  166.680;  558.846;  627.277
490.235;  -20.821; -480.151; -458.728
490.520;  -59.986; -756.161; -723.710
490.804;  -43.444; -827.156; -736.719
491.089;    0.425; -469.149; -299.732
491.374;   29.835; -132.164;  -75.704
491.658;  -12.313; -817.147; -717.735
491.943;  175.347; -657.152; -609.727
492.227;  237.870; -178.155;  -38.721
492.512;   52.899; -294.157; -341.717
492.797;  -66.556; -713.149; -716.731
493.081;  -51.785; -588.147; -598.735
493.366;  -38.734; -751.161; -635.711
493.650;  200.870;  831.859;  917.254
493.935;   44.836; -648.147; -447.734
494.219;  -33.593; -778.142; -687.743
494.503;  -44.211; -585.150; -487.730
494.788;   42.740;   46.842;   74.285
495.072;  100.610;  184.850;  434.271
495.356;  160.303; -463.148; -343.733
495.641;  462.772; -812.146; -736.736
495.925;  449.686; -976.156; -903.719
496.209;   33.524; -599.149; -451.732
496.494;  -34.868; -763.142; -544.744
496.778;    2.449; -364.154; -360.722
497.062;  -52.939; -819.156; -627.719
497.346;  -31.631; -869.160; -640.711
497.631;  147.932;  580.852;  560.266
497.915;   58.082;  -64.145;  175.261
498.199;   43.302; -341.157; -277.718
498.483;   47.366; -562.152; -508.725
498.767;  185.361;  301.850;  300.271
499.051;  198.272; -126.149; -100.732
499.335;   36.695; -693.149; -739.731
499.619;  -35.576; -381.129; -423.767
499.903;   25.818; -272.155;  -65.721
500.187;   28.331; -588.153; -316.724
500.471;   32.572; -796.152; -595.727
500.755;  114.090;   62.839;  -96.710
501.039;   32.319; -270.155; -357.721
501.323;   69.347;  -21.141;  264.254
501.607;   32.591; -447.163; -503.706
501.891;  -14.447; -607.156; -512.718
502.174;  -23.706; -726.144; -585.741
502.458;   79.351;   89.849;  370.273
502.742;   55.546; -180.138; -191.751
503.026;  113.561; -412.147; -254.734
503.310;  172.178; -437.159; -375.713
503.593;  123.313; -464.147; -325.735
503.877;  130.788; -232.133; -156.760
504.161;  176.284;    2.847;  -50.724
504.444;  139.643; -841.158; -710.716
504.728;  460.734; -487.164; -522.704
505.012;  749.283; -257.150;  -76.729
505.295;  546.741; -417.161; -212.711
505.579;  560.610; -256.156; -496.719
505.862;  775.904; -555.145; -333.738
506.146;  776.581; -681.159; -758.714
506.429;  397.031;  568.841;  461.286
506.713;   98.005; -732.151; -667.728
506.996;  324.173;   90.846;  295.278
507.280;  365.929; -633.165; -474.703
507.563;  232.767; -469.155; -261.721
507.847;  112.457; -423.153; -112.724
508.130;   97.342; -665.161; -456.711
508.413;  135.685; -758.167; -577.700
508.697;  255.286; -151.167;   12.300
508.980;  150.609; -422.153; -312.724
509.263;    6.938; -466.155; -450.720
509.547;   38.958; -124.150;   82.271
509.830;   50.844; -172.160;  140.289
510.113;   89.760;  128.844;  298.281
510.396;   23.764; -530.152; -300.725
510.680;  144.580; -818.145; -812.738
510.963;  534.928;  184.846;  180.277
511.246;  483.941; -493.150; -357.730
511.529;  245.760; -482.145;  -83.739
511.812;  391.559; -250.134;   10.241
512.095;  290.252; -740.151; -396.728
512.378;   94.967; -317.147; -245.736
512.661;   29.604; -703.137; -623.753
512.944;   41.584; -750.142; -637.744
513.227;   64.551; -170.137; -171.752
513.510;   36.319; -479.144; -671.741
513.793;   11.576; -485.140; -435.747
514.076;  146.796;  -43.127;  -39.771
514.359;  113.275; -294.149; -135.732
514.642;   85.912; -442.142; -567.744
514.925;  782.224;  581.860;  561.253
515.208; 1059.906; -498.134; -443.758
515.491;  703.445; -276.133; -182.761
515.773;  381.648; -410.143; -337.742
516.056; 2206.011;  249.864;  409.246
516.339; 2977.315; -754.136; -652.755
516.622; 1892.213; -518.150; -488.730
516.904; 1150.630;  882.857;  975.257
517.187;  532.000; -730.138; -523.752
517.470;  396.879; -568.143; -510.743
517.752;  457.293; -624.136; -470.756
518.035;  349.862; -708.139; -725.749
518.318;  395.740; -799.136; -744.755
518.600; 2547.899; -300.132; -325.762
518.883; 3536.536;  310.858;   88.256
519.165; 1674.367; -585.138; -426.751
519.448;  387.948;  -61.132;  -19.762
519.730;  195.804; -573.126; -415.773
520.013;  285.816;  588.867;  664.240
520.295;  771.261;  -94.134;  -15.759
520.578; 1733.512; -335.131; -305.764
520.860; 1941.923; -254.132;   56.238
521.143; 1029.620; -763.135; -584.756
521.425;  493.792; -251.125; -279.775
521.707;  686.546; -622.127; -380.771
521.990; 1844.422; -199.127;  167.229
522.272; 2128.053; -116.140;   -4.748
522.554;  915.174; -237.143; -157.742
522.836;  355.809;  -24.134;   99.241
523.119;  227.460; -496.148; -189.734
523.401;  173.369; -448.130; -314.766
523.683;  107.830; -865.137; -693.753
523.965;  290.998;  408.862;  260.248
524.247;  281.639;   54.878;  170.220
524.529;  209.486; -451.134; -367.759
524.812;  349.821;   -3.130;  191.234
525.094;  877.047; -773.138; -631.751
525.376; 1426.451; -143.124;   78.223
525.658;  841.212; -441.136; -339.754
525.940;   36.508; -805.131; -671.764
526.222;   42.666; -188.136;  -88.755
526.504;  114.356; -190.131;   32.237
526.786;  174.839; -960.133; -647.760
527.068;  286.507; -124.123;  -67.778
527.349;  125.883; -865.137; -774.754
527.631;  136.198; -137.132;   22.238
527.913;  128.871; -664.127; -450.771
528.195;  179.860; -761.125; -639.774
528.477;  254.981;  -93.134;  -30.758
528.759;  148.821; -648.130; -522.766
529.040;   68.681; -569.123; -293.778
529.322;   51.963; -235.125;  -10.774
529.604;  133.648;  -47.130;   93.233
529.886;  109.128; -546.126; -302.773
530.167;  121.514;  232.870;  192.235
530.449;   49.441;    1.853;   63.265
530.731;   23.513; -572.122; -459.779
531.012;   80.785; -513.120; -216.784
531.294;   71.550; -118.116;  -43.792
531.575;  159.967;  290.875;  538.225
531.857;   60.576; -548.135; -266.757
532.138;  104.645; -113.141;   40.254
532.420;  161.697;  294.865;  403.244
532.701;  201.916; -722.133; -751.760
532.983;  343.044;  232.867;  182.239
533.264;  127.801; -243.126;  175.228
533.546;  -32.660; -491.136; -508.755
533.827;   39.212;  173.867;   -1.759
534.109;   24.025; -352.135;  -80.757
534.390;  102.652; -725.132; -582.762
534.671;  250.771; -270.135;  -82.756
534.953;  161.184; -751.123; -611.779
535.234;   33.585; -426.117; -255.789
535.515;  -77.007; -891.119; -735.785
535.796;  -18.784; -431.128; -193.770
536.078;  -95.724;-1050.124; -904.777
536.359;   -0.816;  -22.123;    3.221
536.640;  -14.214; -480.125; -197.774
536.921;  153.928;  225.871;  143.232
537.202;  399.394;  -87.138;  -16.751
537.483;  472.236;  251.869;  377.236
537.764;  191.964;   17.870;   98.235
538.045;  -54.595; -543.134; -371.758
538.326;  -41.170; -596.129; -447.768
538.607;   28.072; -686.127; -476.771
538.888;  175.350;   98.879;    5.218
539.169;  188.120; -704.122; -535.781
539.450;  339.827;  236.871;   16.233
539.731;  214.154; -361.121; -182.783
540.012;  139.460;  199.880;  412.216
540.293;   79.421;   82.876;  158.224
540.574;   -0.429; -895.113; -717.796
540.855;  438.178;  435.879;  377.218
541.136;  547.467;   47.878;  139.220
541.416;  284.371; -161.130; -220.766
541.697;  200.707; -274.131; -170.763
541.978; 1090.149; -270.135; -315.757
542.259; 1404.172; -211.127; -236.771
542.539;  643.269; -191.116; -186.790
542.820;  172.892;  461.875;  480.225
543.101;  131.082;  -52.145;  -77.738
543.381;   45.422; -638.127; -591.771
543.662;  257.744;  159.873; -254.771
543.942;  612.117; -751.127; -830.770
544.223; 1092.469;  193.878;  161.219
544.504;  728.276; -275.124; -182.777
544.784;  593.328; -592.126; -408.773
545.065; 1724.547;  104.884; -254.791
545.345; 2043.993;  227.881;   14.215
545.626; 1341.271;  -14.113; -108.796
545.906;  917.764;   77.869;   98.235
546.186;  370.458;   92.874;  -95.773
546.467;  198.279;   99.877;  -95.778
546.747;  359.468;  264.884;  327.210
547.027;  385.149;   91.876;  111.223
547.308;  344.842; -376.127; -530.770
547.588;  404.031;  299.871;  371.232
547.868;  199.965;  458.870;  588.235
548.149;  186.055;  609.885;  593.207
548.429;  144.545; -347.127; -299.771
548.709;  192.284; -645.120; -461.784
548.989;  511.353;   84.882;   88.213
549.269; 2191.372;   10.868;  139.239
549.550; 5134.408;  215.877;  117.222
549.830; 4547.214; -758.111; -556.799
550.110;  896.797; -468.110; -320.801
550.390;  859.438; -128.122;  -56.779
550.670; 1215.641; -868.114; -783.795
550.950;  839.652; -509.121; -471.782
551.230;  194.299;  549.879;  460.218
551.510;    1.476; -381.121; -326.782
551.790;   47.455; -173.109; -127.803
552.070;  242.678;  940.877; 1181.223
552.350;  454.172; -492.119; -377.786
552.630;  619.296;   -2.121;   77.219
552.909;  381.348;  181.884;   73.209
553.189;  242.878;  -49.132;   33.237
553.469;  202.447; -703.119; -514.786
553.749;  192.823; -469.127; -357.772
554.029;  174.839;   33.883;  -24.790
554.308;  156.310; -154.115;  -37.794
554.588;   73.965; -196.128; -204.770
554.868;   69.528; -366.121;  -47.782
555.147;  170.507; -114.115;  -46.793
555.427;  637.425; -260.116; -250.792
555.707; 4083.729; -284.115; -200.793
555.986; 5038.593; -719.111; -538.800
556.266; 2593.592;   23.884;   72.210
556.546;  130.176; -888.121; -675.782
556.825;  254.439; -657.114; -556.794
557.105; 1872.488; -125.128;   17.230
557.384; 2247.722;  122.884;  187.209
557.664;  841.350; -717.116; -508.792
557.943;  138.728; -557.121; -411.782
558.222;  193.182; -345.118; -344.788
558.502;  286.258; -116.115;  -76.793
558.781;  508.203;  194.885;  499.208
559.061;  429.356; -232.118; -227.788
559.340;  286.511;  302.883;  353.211
559.619;  753.742;   93.884;  148.210
559.899; 1081.713; -239.117; -266.789
560.178;  999.558; -778.115; -593.793
560.457; 3294.865; -623.117; -562.790
560.736; 4745.019; -472.111; -482.800
561.015; 3071.911; -500.128; -502.769
561.295;  391.601;  180.893;  215.193
561.574;  351.305;  119.885;  116.207
561.853;  525.684;  274.891;  303.197
562.132;  520.310;  -45.114;  182.206
562.411;  460.747;  396.879;  553.219
562.690;  146.453; -592.115; -458.792
562.969;  145.978;  472.888;  630.203
563.248;  461.994; 2966.878; 2487.219
563.527;  304.418; -290.111; -408.800
563.806;  416.420; -650.127; -521.771
564.085;  439.791; -297.105; -206.810
564.364;  241.466; -594.117; -405.790
564.643;  536.322; -276.121; -223.781
564.922; 2001.978;  221.890;  397.198
565.201; 2060.607; -640.109; -700.803
565.479;  859.627; -297.115; -219.792
565.758;  358.963; -810.128; -712.770
566.037;  488.708; -155.109; -100.803
566.316;  250.947; -286.116;  -28.791
566.595;   58.430;  -17.115;  -12.793
566.873;   99.170; -166.111;  -79.801
567.152;  -55.348; -490.113; -590.797
567.431;   23.518; -113.116;    6.210
567.709;   21.801; -344.107; -212.807
567.988;  265.289; -810.114; -769.794
568.266;  566.930; -160.115;  -68.793
568.545;  412.465; -644.100; -514.819
568.824;  609.176;  160.885;  356.208
569.102;  596.838; -351.114; -235.794
569.381;  254.950; -492.116; -407.792
569.659;  -43.576; -553.113; -553.796
569.938;   29.267; -743.122; -465.780
570.216;  115.436; -225.109; -225.804
570.494;  -29.333; -632.114; -572.795
570.773;   40.776;  202.879;  114.218
571.051;   10.756; -373.123; -357.778
571.330;   76.171; -221.113; -174.796
571.608;   34.108; -181.098; -173.823
571.886;  -42.738; -671.111; -581.799
572.164;  -55.797; -739.121; -621.782
572.443;  -41.055; -562.105; -512.811
572.721;  -41.810; -399.117; -289.790
572.999;   -6.167; -280.117; -168.788
573.277;   84.013;  379.894;  620.191
573.555;  291.116;   94.894;   37.190
573.834; 1414.233;  -86.117; -114.788
574.112; 1673.403;  880.893;  811.193
574.390;  500.044; -143.111;  -96.801
574.668;    7.954;  -91.112;  -61.797
574.946;  -26.159; -165.106; -187.810
575.224;    8.332;   71.891;  -16.803
575.502;  -24.430; -200.116; -204.791
575.780;  -74.970; -767.112; -829.798
576.058;  222.693; 1589.889; 1004.200
576.336;  -21.301; -210.110; -129.801
576.614;  -57.020; -511.112; -340.798
576.891;   44.034; -711.115; -823.794
577.169;  500.819; -158.108; -285.805
577.447;  605.603;  169.893;  202.193
577.725;  268.060;  629.888;  854.201
578.003;   13.458;  -71.112; -371.798
578.280;  101.954; -208.104; -242.812
578.558;   65.583; -450.115; -422.793
578.836;  141.042; -210.114; -145.795
579.114;   57.803; -630.112; -670.797
579.391;   70.310;   -6.117;  -18.789
579.669;  -45.940; -595.114; -704.794
579.947;  169.274; -326.107; -127.806
580.224;  348.149; -692.107; -524.806
580.502;  329.303;  127.893;   76.193
580.779;   26.191;  -42.117;   75.210
581.057;  -64.214; -584.109; -470.804
581.334;  -97.930; -726.102; -695.815
581.612;   27.492;   54.895;  511.190
581.889;  -27.692;  -83.101; -129.818
582.167;  -30.077; -298.099; -190.821
582.444;  -84.272; -845.102; -814.817
582.721;   83.528;  657.899;  715.183
582.999;   51.795; -326.100; -167.821
583.276;  555.886; -812.123; -713.779
583.553;  776.873; -364.102; -294.816
583.831;  240.801; -607.104; -631.812
584.108;   59.717;  349.892;  174.195
584.385;    0.344; -122.102;  -98.815
584.662;  -42.029; -651.111; -828.801
584.940;   22.995;  204.889;  204.199
585.217;   -8.527;  -73.113; -303.796
585.494;   21.404;   71.890;  118.198
585.771;  229.662; -250.109; -354.804
586.048;  514.548; -196.113;  -76.796
586.325;  334.223; -721.110; -773.801
586.602;   83.380;  230.896;  213.188
586.879;  -10.533; -499.100; -580.820
587.156;   43.342; -156.105; -331.810
587.433;  -29.274; -701.102; -667.817
587.710;   65.131;  152.888;  234.202
587.987;  310.573; -264.105; -236.811
588.264;  814.907;  315.888;  387.202
588.541; 1401.632;  -61.104;   26.187
588.818; 2824.189;   72.892;  171.196
589.095; 2418.453; -163.104; -174.812
589.371;  389.610; -459.109; -414.804
589.648;   23.453; -581.107; -437.807
589.925;   39.218; -517.114; -621.795
590.202;   24.955; -741.112; -607.798
590.478;   85.675; -166.105;  -73.811
590.755;  263.670; -241.108; -132.806
591.032; 2572.650; -741.110; -699.802
591.308; 3653.950; -732.094; -790.831
591.585; 1860.625; -573.110; -560.802
591.862;  161.702;-1056.102; -950.817
592.138;   60.693; -475.108; -474.805
592.415;  141.556; -486.104; -495.813
592.691; 1487.828;  460.896;  518.188
592.968; 1965.235; -208.098; -123.824
593.244;  929.518; -695.116; -595.790
593.521;   86.528; -105.102;  -42.817
593.797;  -21.285; -810.122; -720.780
594.074;  351.373; -611.096; -588.826
594.350;  686.060;  828.905;  729.172
594.626;  331.246; -303.111; -283.801
594.903;  124.878; -643.101; -645.817
595.179;  205.659;  243.896;  418.187
595.455;   15.155; -136.107; -150.807
595.731;   13.386;  -19.103;  -38.814
596.008;  -36.060; -464.111; -434.800
596.284;   46.644; -187.100; -242.820
596.560;   71.256; -501.093; -493.833
596.836;  205.920; -173.105;  -70.810
597.112;  352.194; -582.108; -437.805
597.388;  297.771;  -49.097;  -48.826
597.665;  103.351;  437.887;  530.203
597.941;  -40.863; -572.089; -658.839
598.217;    5.129; -323.110; -293.802
598.493;  275.914;   61.891; -204.804
598.769;  520.138; -175.100;  -50.819
599.045;  333.447; -490.108; -562.806
599.321;   38.468; -193.100; -261.820
599.597;  149.863; -355.109; -476.804
599.872;  507.657;  409.896;  429.187
600.148;  395.223;  -61.097; -172.826
600.424;  313.402;   91.893;  202.193
600.700;  261.129; -170.107; -280.807
600.976;  113.167; -442.097; -464.825
601.252;  262.159; -226.109; -272.803
601.527;  210.483; -833.104; -840.813
601.803;  172.950; -453.105; -404.812
602.079;  176.138; -124.100; -118.819
602.354;  571.367; -620.092; -531.835
602.630;  850.198; -140.113; -482.796
602.906; 2401.783; -910.101; -863.818
603.181; 7054.397; -627.119; -534.786
603.457; 5951.445;   98.903; -278.826
603.733;  877.305; -605.120; -626.783
604.008;  959.841; -245.106; -164.810
604.284; 3180.005; -636.101; -580.817
604.559; 2775.235;   -3.112;  -42.799
604.835;  513.494; -163.105; -225.810
605.110;  438.174; -732.099; -892.821
605.385;  737.634;  224.907;  267.167
605.661;  698.963; -625.095; -729.829
605.936; 1237.297; -664.108; -737.806
606.211; 1045.918;  -17.103; -170.815
606.487;  215.737; -329.114; -376.794
606.762;   36.448; -791.119; -745.786
607.037;  -23.555; -501.105; -433.810
607.313;  -34.669; -589.096; -574.828
607.588;   -6.334; -375.106; -137.810
607.863;   47.008;  -28.101; -143.818
608.138;  160.302;  513.890;  516.198
608.413;   39.103; -576.099; -592.822
608.688;   41.843; -203.108; -267.805
608.964;  229.410; -509.106; -218.809
609.239;  262.717; -107.105; -212.810
609.514;  260.375;  281.895;  240.188
609.789;  658.804; -187.104; -716.812
610.064;  915.429; -435.096; -609.827
610.339;  921.310; -855.109; -799.804
610.614; 1259.769; -131.100; -315.820
610.889;  688.800;  215.895;  107.188
611.163;   56.426; -407.104; -591.812
611.438;   78.388;   81.886; -167.794
611.713;    0.880; -467.101; -499.817
611.988;   60.332; -144.101; -328.818
612.263;   -0.530; -771.102; -717.815
612.538;  215.473;  385.887;  251.204
612.812;  196.320; -832.100; -911.820
613.087;  144.458; -358.098; -338.823
613.362;  -44.721; -497.107; -557.807
613.637;   36.114;  261.897;  138.186
613.911;  -14.083; -256.092; -345.835
614.186;  117.528; -249.107; -292.807
614.460;  705.864; -842.081; -758.854
614.735;  824.411;  -55.087;  -17.843
615.010;  169.100;   43.912;  -82.841
615.284;  257.743;  360.892;  246.195
615.559;  392.341; -792.092; -955.835
615.833;  304.926;  -76.099;  -87.822
616.108;    6.278; -225.090; -390.837
616.382;  128.937;  274.913;  402.156
616.656;  162.729; -241.090; -232.837
616.931;  527.651; -785.099; -700.822
617.205; 1111.059; -973.104; -979.813
617.480; 1002.465;  -91.125;    6.225
617.754;  192.237; -396.125; -128.774
618.028;   17.107; -369.129; -382.768
618.302;   56.066;   73.892;  -25.805
618.577;  -48.485; -371.103; -518.815
618.851;  -54.644; -399.109; -600.803
619.125;  -46.464; -335.134; -378.759
619.399;  -25.616; -244.104; -374.813
619.673;  -52.224; -330.115; -515.792
619.947;  -29.759; -333.114; -448.795
620.222;  -18.953; -198.110; -204.801
620.496;    4.778;  -47.121;  -96.782
620.770;   13.094; -187.122;  -93.781
621.044;  223.867;  323.895;  346.190
621.318;  778.781; -653.120; -614.783
621.592;  703.454; -430.121; -409.783
621.866;  379.561; -476.112; -572.799
622.140;   31.295; -207.116; -356.791
622.413;   58.590;  138.889;  112.200
622.687;  -44.720; -746.101; -492.817
622.961;   -4.284; -130.108; -143.805
623.235;  -37.109; -633.111; -661.800
623.509; -103.950; -816.105; -848.811
623.783;    3.325;  -12.107;   48.193
624.056;  -28.368; -254.120; -280.783
624.330;   49.304;   63.888;   -3.797
624.604;   49.716; -271.116; -355.790
624.877;   67.101;  180.890;   26.198
625.151;   37.411; -249.114; -238.794
625.425;  -36.689; -150.103; -283.814
625.698;  -60.608; -367.119; -374.785
625.972;  -93.196; -799.110; -765.802
626.245;   74.718;  685.884;  484.210
626.519;  -40.564; -426.120; -340.784
626.792;  -39.246; -192.107; -380.807
627.066;  -74.663; -485.122; -662.779
627.339; -107.300; -736.110; -663.802
627.613;   36.235;  351.880;  148.216
627.886;   48.306;  187.891; -612.803
628.160;   -3.694;  312.880; -161.783
628.433;  -98.282; -695.125; -703.775
628.706;  -68.539; -517.120; -615.784
628.979;   19.174;  296.876;  117.223
629.253;  -87.803; -785.119; -833.786
629.526;  366.052; -334.126; -253.772
629.799;  375.557; -641.123; -479.778
630.072;  171.108; -497.128; -516.769
630.346;  -50.557;-1115.116;-1080.790
630.619;  478.305; -467.107; -545.808
630.892;  624.641;  709.889;  593.200
631.165;  328.684;  790.896;  679.187
631.438;  -79.368;-1092.112;-1055.798
631.711;   38.460;  453.877;  257.221
631.984;  -50.436; -523.117; -624.789
632.257;  -74.790; -636.117; -681.789
632.530;  -55.558; -412.119; -433.785
632.803;   11.484; -109.115;    7.207
633.076;  -60.922; -360.123; -422.777
633.349;    8.313;  173.872;  121.231
633.622;  -39.809; -187.119; -240.785
633.895; -118.943; -903.120; -823.783
634.167;  -61.121; -496.126; -525.773
634.440;  -16.325;  -19.116; -137.792
634.713;    0.645;  -22.119; -120.786
634.986;   68.327;  593.871;  453.233
635.258;  -77.093; -507.115; -597.793
635.531;   82.781;  742.882; -343.788
635.804;  -34.713; -303.117; -318.789
636.077;  -92.504; -830.116; -852.791
636.349;   -8.920; -586.115; -474.793
636.622;  378.551; 1695.874; 1392.228
636.894;  268.312; -474.120; -909.784
637.167;  174.370; -836.127; -789.771
637.439;   33.391; -278.128; -213.770
637.712;  -56.522; -312.126; -293.772
637.984;  -71.478; -635.116; -707.791
638.257;  381.254;  515.877;  488.222
638.529;  611.994; -881.125; -924.776
638.802;  244.533; -508.128; -449.769
639.074; -111.257; -927.122; -952.781
639.346; -114.223; -942.135; -930.757
639.619;    7.885;  -79.142; -319.744
639.891;  -17.013;  -83.122; -168.779
640.163;  -81.436; -689.122; -756.780
640.435;   25.291;  273.878;  103.220
640.708;   19.143;  -72.122; -132.780
640.980;  -24.830; -366.122; -362.781
641.252;  181.097;  -25.121;  -71.781
641.524; 1830.523;  580.879;  573.219
641.796; 1889.475;-1094.121; -907.782
642.068;  331.252; -191.121; -300.782
642.340;  -54.796; -486.121; -566.783
642.613;   26.956;  294.880;  323.217
642.885;  -91.617; -787.120; -878.783
643.157;  -36.590; -810.120; -658.784
643.428;   53.287;  170.880;  218.216
643.700;  -73.311; -498.120; -425.784
643.972;  -27.310;  -16.119; -133.785
644.244;  -86.708; -474.119; -559.785
644.516;  -41.956; -250.119; -114.786
644.788;   54.396;  662.881;  548.214
645.060;  -18.677;  -12.119; -124.786
645.332; -108.600; -525.118; -535.787
645.603;   32.427;  479.882;  342.213
645.875;  -81.071; -334.118; -369.787
646.147;  171.181; 1487.882; 1242.212
646.418;  -61.893; -931.117; -918.788
646.690;  151.709; -714.117; -715.789
646.962;   37.986; -413.117; -451.789
647.233;   -8.037;   15.883;   11.211
647.505; -110.535; -595.117; -475.790
647.776;   34.917;  328.884;  229.210
648.048;  -15.706; -248.116; -418.790
648.320;  -61.254; -752.116; -679.791
648.591; -148.677;-1055.116; -958.791
648.862;  -84.701; -505.116; -577.792
649.134;    9.051;  115.885;  198.208
649.405;  -32.147; -661.115; -618.792
649.677;  -68.495; -475.115; -598.793
649.948;    1.957; -181.115; -296.793
650.219;  -20.691;  -37.115; -147.793
650.491;  -70.564; -431.114; -520.794
650.762; -127.187; -705.114; -731.794
651.033;  -64.385; -437.114; -424.795
651.304;  -73.634; -743.114; -728.795
651.576;  -52.582; -680.114; -645.795
651.847;  -51.430; -250.113; -140.796
652.118;  -20.328;  -32.113; -189.796
652.389;  -99.001; -639.113; -722.796
652.660;  -33.624; -147.113;  -89.797
652.931; -136.072; -897.112; -871.797
653.202;  -73.345; -382.112; -541.798
653.473;  -66.618; -633.112; -533.798
653.744;  161.583; -595.112; -590.798
654.015;  145.960; -356.112; -303.799
654.286;  -62.163; -642.111; -663.799
654.557;  -51.061; -586.111; -521.799
654.828; -144.384;-1114.111;-1088.800
655.099;  -74.707; -404.111; -291.800
655.370;  -92.855; -427.111; -543.801
655.641; -121.753; -656.110; -714.801
655.911;  -90.276; -618.110; -638.801
656.182;   23.350;  437.890;  387.198
656.453;   89.752;  830.890;  746.198
656.724;  -64.996; -466.110; -426.802
656.994;  -75.569; -553.109; -568.803
657.265; -114.867; -862.109; -873.803
657.536;  -83.215; -500.109; -377.804
657.806; -112.438; -561.109; -593.804
658.077; -132.361; -866.109; -950.804
658.347;  -96.859; -523.108; -598.805
658.618; -102.308; -646.108; -694.805
658.888;  -24.781;  -41.108;  112.195
659.159;  -66.654; -432.108; -548.806
659.429;  -16.277; -292.108; -349.806
659.700;    5.800; -435.107; -390.807
659.970;  -12.723; -370.107; -359.807
660.241;   37.054; -754.107; -921.807
660.511;  514.381; -147.107; -174.808
660.781;  116.208; -793.106; -748.808
661.052;  -51.866; -222.106; -381.808
661.322;  -27.189;   21.894;   -9.809
661.592;    9.163;  257.894;  148.191
661.862;  -71.510; -369.106; -382.810
662.133; -100.158; -551.105; -502.810
662.403; -113.681; -770.105; -676.810
662.673;  -70.129; -256.105; -213.811
662.943;  -95.652; -612.105; -551.811
663.213;  -13.525;  -85.105;  -81.811
663.483;  -58.949; -593.104; -568.812
663.753;  -52.622; -194.104; -152.812
664.023;   -8.620;   68.896;  -32.813
664.293;  -67.793; -319.104; -126.813
664.563; -104.791; -694.104; -648.813
664.833; -123.764; -743.103; -608.814
665.103; -123.712; -730.103; -793.814
665.373; -103.860; -766.103; -806.814
665.643;  -85.433; -863.103; -918.815
665.913;   34.443; -534.103; -714.815
666.182;  156.370; -685.102; -719.816
666.452;  281.397;  -22.102;  -89.816
666.722;   -6.426; -724.102; -784.816
666.992; -130.799; -948.102; -921.817
667.261;  -87.322; -824.102; -808.817
667.531;  183.880;  134.899;   45.183
667.801;  555.557; -440.101; -412.818
668.070;  238.509;  714.899;  697.182
668.340;  -92.740; -883.101; -840.819
668.609;   89.662;  588.900;  301.181
668.879;  -62.186; -490.100; -558.819
669.149;  -72.559; -539.100; -516.820
669.418; -100.107; -698.100; -726.820
669.688;  -34.380; -482.100; -666.820
669.957;   89.322; -423.099; -546.821
670.226;  -30.801; -268.099; -331.821
670.496;  -92.649; -431.099; -635.822
670.765;  -88.598; -418.099; -501.822
671.034; -115.046; -872.099; -828.822
671.304;  -14.019;   55.902; -111.823
671.573; -147.492;-1085.098; -957.823
671.842;   90.310; -380.098; -294.823
672.112;   46.162; -692.098; -586.824
672.381;   -0.061; -239.098; -214.824
672.650; -123.534;-1005.097;-1021.825
672.919;  -95.857; -631.097; -507.825
673.188;  -89.180; -681.097; -878.825
673.457; -150.579;-1101.097;-1143.826
673.726;  -71.102; -579.096; -646.826
673.995;  -40.450; -533.096; -479.826
674.265;  -20.973; -263.096; -333.827
674.534;    4.279; -183.096; -235.827
674.802;   10.956; -618.096; -703.828
675.071;  983.658; -886.095; -801.828
675.340; 4142.735; -464.095; -339.828
675.609; 1365.037;  103.905;   82.171
675.878;   98.138; -949.095; -893.829
676.147;   24.540;  -26.095;   -8.829
676.416;   87.942; -210.094; -294.830
676.685;  740.569; 1000.906; -622.830
676.953;  123.321; -603.094; -452.831
677.222;  -37.977; -193.094; -273.831
677.491;  -21.475;  -24.094; -127.831
677.759;  -12.598;   11.907;  172.168
678.028;   -5.346; -279.093; -222.832
678.297;  -10.320;   71.907;  197.168
678.565; -130.218; -898.093; -944.833
678.834;  -60.116; -311.093; -268.833
679.102;  -69.289; -411.092; -391.834
679.371; -137.487; -898.092; -727.834
679.639; -129.710; -797.092; -786.834
679.908; -123.208; -794.092; -724.835
680.176; -136.856; -895.091; -941.835
680.445;  -71.704; -346.091; -352.835
680.713;  -10.603;  -58.091;  -23.836
680.982; -100.551; -523.091; -525.836
681.250;  -98.949; -578.091; -507.837
681.518; -103.947; -534.090; -751.837
681.787;  -10.620; -204.090; -167.837
682.055;  -60.818; -490.090; -422.838
682.323; -134.141; -993.090; -992.838
682.591;   23.011; -216.090; -538.838
682.859;   90.388;    9.911;  -35.839
683.128;   13.314;  232.911;  497.161
683.396; -164.734;-1102.089;-1122.840
683.664;  -54.482; -241.089;   21.160
683.932;    5.445;  144.911;  -76.840
684.200;  -86.303; -576.088; -320.841
684.468;  -21.301;  -73.088; -124.841
684.736;  -38.774; -214.088; -175.841
685.004; -110.447;-1024.088; -982.842
685.272;  -52.220; -880.088; -774.842
685.540;  -51.269; -499.087; -557.843
685.808;  -87.967; -651.087; -682.843
686.076;  -93.690; -894.087; -969.843
686.343;  -70.538; -601.087; -815.844
686.611;   35.989; -195.087; -224.844
686.879;  423.516; -530.086; -553.844
687.147; 3470.943; -483.086; -480.845
687.414;  976.320;  -12.086; -169.845
687.682;   25.672; -658.086; -757.846
687.950;  300.848;  259.915;  263.154
688.217;   30.950; -792.085; -760.846
688.485;   -6.348; -632.085; -636.847
688.753;  536.254;  -11.085; -102.847
689.020;  168.281; -820.085; -851.847
689.288;  -81.142; -853.084; -787.848
689.555;  -30.190; -195.084; -148.848
689.823;  -34.013; -241.084; -345.849
690.090;  -84.386; -546.084; -651.849
690.358; -130.010; -877.084; -897.849
690.625;    0.467;  120.917;   45.150
690.892;  -92.081; -403.083; -369.850
691.160;  -19.629;   72.917;  -35.850
691.427;   -0.177;  141.917;  130.149
691.694; -139.325; -855.083; -929.851
691.962; -132.848;-1177.082;-1060.852
692.229;   15.879;  127.918;   56.148
692.496;   88.881;  130.918;  -49.852
692.763;    5.007; -164.082; -201.853
693.031;  -62.191; -739.082; -716.853
693.298;  -37.564; -509.081; -368.853
693.565;  295.938; -155.081; -163.854
693.832; 1348.965;   -5.081;   -9.854
694.099;  175.617; -643.081; -642.855
694.366;  -58.806; -882.081; -896.855
694.633;  -47.204; -920.080; -633.855
694.900;  699.898; 4367.920; -114.856
695.167;  427.249; -214.080; -380.856
695.434;  110.576; -646.080; -623.856
695.701;  194.553;  121.921;  -61.857
695.968;  482.980; -365.079; -361.857
696.234;  963.332; -415.079; -646.858
696.501;10536.309; -776.079; -614.858
696.768; 5663.611; -554.079; -617.858
697.035;  333.513; -632.078; -667.859
697.302;   51.265; -448.078; -552.859
697.568;   20.591; -458.078; -497.859
697.835;  -27.557; -683.078; -624.860
698.102;  -32.955; -498.078; -407.860
698.368;   70.322;  384.923;  396.139
698.635;  -36.301;  -47.077; -424.861
698.901;  -14.849; -240.077; -348.861
699.168;   65.803; -534.077; -456.862
699.435;   81.255;  -72.077;  -13.862
699.701;  -99.893; -868.076; -764.862
699.968;   -4.192;  144.924; -441.863
700.234;  -95.340; -783.076; -822.863
700.500;  -42.288; -448.076; -539.864
700.767;   -6.661;   -1.075;   26.136
701.033; -120.709;-1015.075; -963.864
701.299;  -69.757; -450.075; -483.865
701.566;  108.845;  950.925;  763.135
701.832;   35.297;  -31.075;  -76.865
702.098;  -93.951;-1054.074;-1034.866
702.365;  -82.975;-1098.074;-1030.866
702.631;  -17.423;-1038.074;-1063.867
702.897; 1342.004; -765.074; -676.867
703.163; 2419.706;  348.926;  254.133
703.429;  149.958; -256.073; -273.868
703.695;  -20.765; -796.073; -792.868
703.961;   20.912; -214.073; -210.868
704.227;  -40.611; -630.073; -725.869
704.493;  121.541;  613.927;  510.131
704.759;  -21.783; -565.072; -540.870
705.025;   44.569; -203.072; -194.870
705.291;   -1.879; -666.072; -562.870
705.557;  174.898;  719.928;   34.129
705.823;   51.875; -742.072; -694.871
706.089;  137.852; -307.071; -326.871
706.355;  352.329; -315.071; -244.872
706.620; 5432.631; -776.071; -729.872
706.886; 8210.608; -309.071; -362.873
707.152;  792.234; -818.070; -973.873
707.418;    6.736;-1153.070;-1186.873
707.683;   -8.237; -550.070; -530.874
707.949;  -40.610; -547.070; -578.874
708.215;    9.442; -129.070; -207.874
708.480;  -18.581; -520.069; -420.875
708.746;  102.521;   68.931;   28.125
709.011;  -59.827; -578.069; -612.876
709.277;  -84.600; -538.069; -543.876
709.542;  -41.474; -428.069; -387.876
709.808;   -7.322;  -59.068;   89.123
710.073;  -76.670; -577.068; -695.877
710.339;  -33.618; -242.068; -228.877
710.604;   92.709; -780.068; -845.878
710.869;  353.161; -277.068; -366.878
711.135;  -64.812; -715.067; -628.879
711.400;  -87.635; -507.067; -608.879
711.665;  -52.483; -404.067; -479.879
711.931; -103.282; -661.067; -677.880
712.196; -109.905; -876.067; -954.880
712.461;   93.697; -402.066; -490.880
712.726;  168.574; -727.066; -771.881
712.991;  -89.449; -647.066; -664.881
713.256;  -41.672; -350.066; -332.882
713.521;  -64.845; -417.065; -381.882
713.787;  -53.368; -454.065; -472.882
714.052;  -28.091; -214.065; -400.883
714.317;  -80.865;-1045.065; -981.883
714.581;  970.137; -374.065; -268.883
714.846; 1522.164; -822.064; -888.884
715.111;  152.841;  261.936;  257.116
715.376;  -11.907;  -86.064; -223.885
715.641;  -17.330; -365.064; -367.885
715.906;  307.072;   15.936; -551.885
716.171;  136.474;  221.937;  209.114
716.436;   53.826;  -78.063; -104.886
716.700; -103.848; -818.063; -692.886
716.965; -124.546; -794.063; -807.887
717.230;  -75.619; -339.063; -392.887
717.494;  -24.742;  -40.062; -134.888
717.759;  -93.590; -784.062; -640.888
718.024;   19.187;  269.938;  250.112
718.288;   77.664;  685.938;  395.111
718.553; -134.034; -803.062; -977.889
718.817; -149.957; -883.061; -899.889
719.082;  -42.856; -115.061; -125.890
719.346; -127.479;-1000.061; -947.890
719.611;  -42.652; -300.061; -255.891
719.875; -111.725; -568.060; -537.891
720.140;  -61.848; -453.060; -603.891
720.404;   21.454; -136.060; -249.892
720.668;  859.281; -475.060; -411.892
720.933;  355.808;  146.940;  137.108
721.197;  -86.115; -667.059; -600.893
721.461; -121.639; -851.059; -826.893
721.725;  -17.837;  -21.059; -250.894
721.990;  -67.260; -284.059; -204.894
722.254;  -14.758;  -26.059; -108.894
722.518;  -67.756; -286.058; -442.895
722.782;  -89.779; -743.058; -594.895
723.046;  117.723;  614.942;  570.105
723.310;   22.750;  374.942;  210.104
723.574;  -86.073; -654.058; -614.896
723.838;  -91.596; -576.057; -642.897
724.102;  -51.070; -226.057; -239.897
724.366; -127.543;-1032.057; -978.897
724.630;  -87.666; -749.057; -571.898
724.894;  -74.214; -722.057; -514.898
725.158;   -8.912;   38.944; -295.898
725.422;  -54.835; -394.056; -327.899
725.685;  -67.083; -441.056; -349.899
725.949;  -73.856; -566.056; -519.900
726.213;  -72.254; -732.056; -811.900
726.477;  177.772;-1020.055; -933.900
726.740;  156.849; -274.055; -104.901
727.004;  335.951; -384.055; -510.901
727.268; 3307.328; -442.055; -400.901
727.531; 1026.080; -961.055; -775.902
727.795;  -52.793; -713.054; -673.902
728.059;  -45.291; -552.054; -557.903
728.322;  -73.964; -841.054; -669.903
728.586;   25.913; -692.054; -701.903
728.849;  -90.011; -695.053; -756.904
729.112; -110.259; -812.053; -912.904
729.376; -125.132; -959.053; -905.904
729.639;  -72.480; -536.053; -536.905
729.903; -112.403; -733.053; -699.905
730.166;  -45.976; -437.052; -399.906
730.429;  -29.299; -317.052; -468.906
730.693;  -66.447; -355.052; -894.906
730.956;  191.555;  810.948;  651.093
731.219;  739.931; -310.052; -103.907
731.482;  107.808;-1003.051; -894.907
731.745;  123.760; -794.051; -935.908
732.009;   19.112;  -30.051;   50.092
732.272;  -94.986; -904.051; -771.909
732.535;  -47.809; -300.051; -310.909
732.798; -150.782;-1083.050;-1166.909
733.061;  -72.855; -430.050; -456.910
733.324;    8.947;   31.950; -180.910
733.587;   46.998;  290.950;  365.090
733.850;  -64.950; -973.049;-1050.911
734.113;   13.152;   33.951;   32.089
734.376;   -6.171; -328.049; -447.912
734.639;  211.881; 1188.951; 1011.088
734.901;   59.883; -180.049; -402.912
735.164;  482.710; -883.048; -837.913
735.427; 1389.562; -166.048; -355.913
735.690;  123.864; -205.048; -234.913
735.952;   -6.860; -923.048; -925.914
736.215;  -36.458;-1113.048;-1009.914
736.478;   51.294; -771.047; -774.915
736.740;  205.896;   33.953;  129.085
737.003;  653.423; -658.047; -672.915
737.266; 4224.575;  -94.047;   46.084
737.528;  486.152; -682.047; -660.916
737.791;  328.554; -316.046; -327.916
738.053;  793.356;  465.954;  649.083
738.316;10598.957; -162.046; -136.917
738.578; 8355.959; -770.046; -736.918
738.841;  467.311; -382.046; -446.918
739.103;  188.263; -875.045; -777.918
739.365;  527.115;   79.955;  -69.919
739.628;   14.717; -884.045; -805.919
739.890;  -14.106; -758.045; -710.919
740.152;  -36.204; -692.044; -754.920
740.414;  -16.827; -408.044; -359.920
740.677;  -34.201; -785.044; -634.921
740.939;  -57.424; -587.044; -487.921
741.201;  286.353; -432.044; -572.921
741.463;   42.730; -689.043; -745.922
741.725;   10.807;  -21.043; -199.922
741.987;   39.884;  220.957;  116.078
742.249;   17.611; -751.043; -859.923
742.511;  221.263; -703.043; -794.923
742.773;   30.715; -546.042; -546.924
743.035;  121.891;  796.958;  533.076
743.297;  -38.457; -963.042;-1013.924
743.559;  756.795; -278.042; -262.925
743.821;   90.122; -735.042; -744.925
744.083;   20.424;  -44.041; -149.925
744.345;  -81.349; -869.041; -892.926
744.607;   38.728;   75.959;  122.074
744.868;  -42.295; -490.041; -554.927
745.130; -111.568; -994.041;-1008.927
745.392;   41.108;   -1.040;  -44.927
745.653;  -14.740; -411.040; -378.928
745.915;  148.087;  896.960;  631.072
746.177;   61.589;   35.960;  -43.928
746.438;    4.116; -428.040; -543.929
746.700;  -40.282; -947.039; -988.929
746.961;    5.645; -659.039; -740.930
747.223;  124.822; -190.039;  -74.930
747.484;   94.599; -391.039; -471.930
747.746;  150.425;  -23.038; -106.931
748.007;  114.052; -647.038; -689.931
748.269;  314.154; -468.038; -440.931
748.530;  513.106; -852.038; -638.932
748.791;  263.633; -354.038; -420.932
749.053;  463.010;  286.963;  163.067
749.314;  461.537; -236.037; -169.933
749.575;  552.314; -945.037; -905.933
749.836;  854.591; -217.037;   86.066
750.098; 2342.742;  -60.037;  -21.934
750.359;36910.819;  414.964;  555.066
750.620;10484.521; -121.036; -220.935
750.881; 1079.398; -585.036; -513.935
751.142; 1378.275; -950.036; -938.936
751.403;16506.377; -789.036; -705.936
751.664; 8220.954;-1034.035; -999.936
751.925;  524.106; -175.035; -262.937
752.186;  290.558; -298.035; -278.937
752.447;  139.359; -590.035; -445.937
752.708;   65.561; -532.035; -648.938
752.969;   20.238; -566.034; -576.938
753.230;    7.390; -777.034; -672.939
753.491;   -0.883; -650.034; -631.939
753.751;   64.244;  109.966;   19.061
754.012;   96.396;  258.967;  181.060
754.273;   57.448; -174.033;  -71.940
754.534;   15.625; -487.033; -580.940
754.794;  -67.924; -926.033; -911.941
755.055;  145.628; 1051.967;  881.059
755.316;  -46.495; -700.032; -566.942
755.576;  -15.818; -606.032; -576.942
755.837;  -31.916; -527.032; -695.942
756.097;  -38.089; -530.032; -564.943
756.358;  -59.387; -725.032; -770.943
756.618;  -47.535; -705.031; -641.943
756.879;    6.792; -254.031; -349.944
757.139; -127.482;-1098.031;-1116.944
757.400;  -55.405; -538.031; -553.945
757.660;  -22.403; -365.031; -401.945
757.920;   32.824; -266.030; -228.945
758.181;  -17.824; -468.030; -351.946
758.441;  -78.447; -870.030; -809.946
758.701;  -34.945; -308.030; -215.946
758.961;  -11.668; -220.030; -278.947
759.222;  -60.316; -574.029; -502.947
759.482;  -59.390; -683.029; -723.948
759.742;  -96.063; -706.029; -547.948
760.002;   14.239;  -83.029; -143.948
760.262;   17.066;   50.972;  182.051
760.522;  -38.207; -498.028; -574.949
760.782;  -58.280; -738.028; -612.949
761.042;  -28.653; -618.028; -573.950
761.302;   41.899;   55.972;  -18.950
761.562;   53.026; -164.027; -154.951
761.822;   83.702; -710.027; -551.951
762.082;  -21.746;-1104.027;-1093.951
762.342;   82.581; -328.027; -403.952
762.601;   96.708; -567.027; -506.952
762.861;  362.910; -281.026; -207.952
763.121;  415.062; -406.026; -411.953
763.381; 7315.914; -499.026; -485.953
763.640; 9223.141; -139.026; -307.954
763.900;  413.493; -242.026; -203.954
764.160;  105.994; -458.025; -491.954
764.419;   -5.804; -726.025; -782.955
764.679;  -82.202; -795.025; -726.955
764.939;  -12.350; -124.025; -210.955
765.198;  -81.998; -608.025; -563.956
765.458;  -83.471; -710.024; -612.956
765.717;  -78.794; -454.024; -590.957
765.976;  -61.267; -428.024; -411.957
766.236;  -66.790; -475.024; -610.957
766.495;    9.111;  260.977;   73.042
766.755;  -80.712;-1090.023; -987.958
767.014;   16.390; -594.023; -665.958
767.273;  -46.383; -373.023; -397.959
767.533;  -50.006; -228.023; -307.959
767.792;  -15.379; -151.022; -188.960
768.051;  -58.502; -228.022; -276.960
768.310;  -75.675; -546.022; -650.960
768.569;   -1.498; -161.022;    4.039
768.828;  -28.597; -285.022; -363.961
769.088; -101.345;-1050.021; -942.961
769.347;  -82.943; -755.021; -599.962
769.606;  -92.466; -876.021; -857.962
769.865; -114.739;-1016.021;-1033.963
770.124;   -6.387; -411.021; -336.963
770.383;  -46.960; -778.020; -910.963
770.641;   13.417; -398.020; -400.964
770.900;  -48.806; -953.020; -846.964
771.159;  -40.805; -851.020; -951.964
771.418;   -7.553; -917.020; -779.965
771.677;  130.449; -224.019; -293.965
771.936;  156.076; -794.019; -865.966
772.194; 1934.278; -465.019; -437.966
772.453;11683.055; -213.019; -391.966
772.712;  870.307;  416.982;  329.033
772.970;  130.509;   32.982;   63.033
773.229;   84.836;  -22.018;  102.033
773.488;  -79.562; -814.018; -770.968
773.746;   53.214;  296.982;  335.032
774.005;    7.141;  190.983;  -22.969
774.263;    6.468;  243.983;  177.031
774.522;  -38.430; -422.017; -548.969
774.780;  -70.478; -484.017; -417.970
775.039;  -92.576; -551.017; -531.970
775.297;  -39.724; -135.016; -351.970
775.555;  -96.572; -489.016; -612.971
775.814; -126.945; -618.016; -570.971
776.072; -121.469; -749.016; -740.971
776.330; -103.992; -630.016; -520.972
776.589; -110.140; -703.015; -721.972
776.847; -127.038; -645.015; -624.973
777.105; -164.736;-1016.015;-1032.973
777.363;  -77.734; -459.015; -454.973
777.621; -144.182; -660.015; -717.974
777.879;  -46.555;  -42.014;   32.026
778.138;  -90.103; -554.014; -717.974
778.396; -102.302; -585.014; -526.975
778.654; -153.525;-1015.014; -970.975
778.912;  -79.648; -269.014; -371.976
779.170; -129.821; -880.013; -803.976
779.427; -162.669; -922.013; -897.976
779.685; -136.292; -880.013; -832.977
779.943;  -86.240; -654.013; -593.977
780.201; -151.088; -964.012; -883.978
780.459; -125.486; -651.012; -610.978
780.717;  -75.935; -440.012; -390.978
780.974; -100.858; -449.012; -490.979
781.232;  -71.831; -358.012; -338.979
781.490;  -83.179; -551.011; -472.979
781.747;  -86.927; -555.011; -476.980
782.005;    7.225;  462.989;  254.020
782.263; -157.273; -542.011;-1004.981
782.520;  -88.921; -326.011; -501.981
782.778; -163.919;-1013.010;-1051.981
783.035; -163.193; -962.010; -938.982
783.293;  -55.266; -248.010; -206.982
783.550;  -70.014; -134.010; -198.982
783.808; -126.837; -764.010; -776.983
784.065; -148.860; -745.009; -874.983
784.322;  -51.833;   25.991;  -86.984
784.580; -147.781; -915.009; -771.984
784.837;  -90.929; -392.009; -466.984
785.094; -146.227; -783.009; -762.985
785.352;  -68.601; -304.008; -404.985
785.609; -105.649; -934.008; -839.985
785.866;  -72.622; -345.008; -401.986
786.123;  -80.770; -639.008; -583.986
786.380;  -88.043; -665.008; -604.987
786.637;  -51.041; -225.007; -380.987
786.895;  -15.339; -456.007; -543.987
787.152;  -62.162; -135.007; -267.988
787.409;  -54.810; -123.007; -225.988
787.666;  -97.959; -299.006; -378.988
787.923; -109.882; -616.006; -695.989
788.179; -112.155; -551.006; -584.989
788.436;  -96.978; -585.006; -585.990
788.693;  -35.926;  -92.006;  -87.990
788.950;  132.676; -125.005; -112.990
789.207;  255.703; -381.005; -372.991
789.464;  -48.620; -161.005; -301.991
789.720;  -19.693;  150.995;  110.009
789.977; -171.942;-1003.005; -671.992
790.234;  -42.090;   44.996;  -66.992
790.490; -144.738; -884.004;-1031.993
790.747;  -30.136;  -85.004;   22.007
791.004;   -8.134; -426.004; -348.993
791.260;  -85.357; -430.004; -560.994
791.517;  -95.755; -843.003; -788.994
791.773;  -53.453; -379.003; -342.994
792.030;  -97.451; -596.003; -660.995
792.286; -104.300; -686.003; -636.995
792.543;  -21.073;  -74.002; -159.995
792.799;  -49.896; -584.002; -382.996
793.055; -156.019;-1179.002;-1210.996
793.312;  -94.292; -827.002; -816.997
793.568;  -44.515; -746.002; -599.997
793.824;    9.937; -226.001; -284.997
794.081;   36.689; -447.001; -508.998
794.337;   69.391; -664.001; -561.998
794.593; 1171.592; -319.001; -271.999
794.849; 7064.869; -746.001; -772.999
795.105;  420.821; -270.000; -261.999
795.361;   21.023; -490.000; -457.000
795.617;  -54.475; -875.000; -945.000
795.873;  -41.625; -360.000; -407.000
796.129;  -33.725; -368.000; -306.000
796.385;  -29.750; -124.000; -156.000
796.641;   63.175;  412.000;  550.000
796.897;  -76.125; -666.000; -635.000
797.153;   67.200;  453.000;  357.000
797.409;  -97.575; -785.000; -868.000
797.665;  -65.075; -625.000; -732.000
797.921;  -75.550; -775.000; -762.000
798.176;  -36.350; -744.000; -747.000
798.432;  -49.550; -824.000; -596.000
798.688;  -68.400;-1174.000;-1078.000
798.943;   84.225; -165.000; -147.000
799.199;   12.900;-1005.000; -959.000
799.455;  233.000;  369.000;  316.000
799.710;  136.300; -813.000; -380.000
799.966;  319.400; -162.000; -160.000
800.221;  487.175; -638.000; -721.000
800.477; 9831.875; -743.000; -710.000
800.732;10446.100; -773.000; -800.000
800.988;  666.075;  205.000;  -19.000
801.243; 1603.875; -454.000; -344.000
801.498; 8204.200; -814.000; -739.000
801.754;  516.675; -289.000; -163.000
802.009;   90.075; -257.000; -335.000
802.264;  -39.875; -967.000;-1033.000
802.520;   10.300;  222.000;   -3.000
802.775;  -37.575; -524.000; -359.000
803.030;   39.350;  395.000;  356.000
803.285; -108.625; -840.000; -903.000
803.540;  -71.950; -686.000; -699.000
803.795;  -23.200; -648.000; -583.000
804.051;  -40.925; -279.000; -346.000
804.306;    0.975;  168.000;  128.000
804.561;  128.825;  451.000;  362.000
804.816;  136.975;  714.000;  861.000
805.071;   14.350; -185.000; -280.000
805.325;  235.550; -257.000; -427.000
805.580;  -92.400; -841.000; -877.000
805.835;  -12.750; -204.000; -297.000
806.090;  -67.325; -760.000; -676.000
806.345;  -10.825; -344.000; -264.000
806.600;  -28.500; -549.000; -632.000
806.854;  -14.025; -408.000; -538.000
807.109;  -19.300; -493.000; -577.000
807.364;   12.825; -407.000; -328.000
807.618;  -14.100; -415.000; -381.000
807.873;   51.700; -470.000; -494.000
808.128;  113.475; -257.000; -518.000
808.382;  112.675; -224.000; -332.000
808.637;   85.325; -440.000; -511.000
808.891;  201.350; -257.000; -180.000
809.146;  115.875; -902.000; -794.000
809.400;  295.025; -848.000; -923.000
809.654;  348.450; -779.000; -551.000
809.909;  539.750; -841.000; -927.000
810.163; 6060.425; -813.000; -651.000
810.418;18753.375; -940.000; -861.000
810.672; 1192.975; -685.000; -690.000
810.926;  766.950; -993.000; -973.000
811.180; 1386.925; -439.000; -372.000
811.434;31456.525;  240.000;  135.000
811.689;15317.625; -231.000; -365.000
811.943;  738.350; -936.000; -953.000
812.197;  369.350; -893.000; -671.000
812.451;  150.075; -379.000; -514.000
812.705;  -13.275; -809.000; -619.000
812.959;   11.050; -263.000; -388.000
813.213;    3.975; -283.000; -209.000
813.467;   84.325;  470.000;  253.000
813.721;  -97.500; -764.000; -792.000
813.975; -108.650; -826.000; -877.000
814.229;   21.275;  430.000;  353.000
814.482;  -62.350; -517.000; -566.000
814.736; -116.700; -766.000; -744.000
814.990; -115.575; -779.000; -872.000
815.244;  -34.000; -228.000; -285.000
815.497;  -91.450; -636.000; -601.000
815.751;  -13.350; -141.000;   82.000
816.005;  -70.900; -470.000; -586.000
816.258;  -70.975; -510.000; -363.000
816.512; -109.300; -693.000; -610.000
816.766;  -12.200;  121.000;  157.000
817.019;   21.025;  148.000;  149.000
817.273; -113.675;-1000.000; -802.000
817.526;  -39.800; -206.000; -173.000
817.779;  -39.125;-1049.000; -960.000
818.033;  -64.975; -693.000; -807.000
818.286; -129.725; -725.000; -792.000
818.540;  -80.875; -403.000; -403.000
818.793;  -81.050; -402.000; -489.000
819.046;  -95.475; -582.000; -520.000
819.299;  -37.050; -157.000; -166.000
819.553; -103.400; -552.000; -592.000
819.806; -170.700;-1016.000; -838.000
820.059;  -61.875; -334.000; -354.000
820.312;   17.200;  152.000;  185.000
820.565;  -19.975;  110.000;  -27.000
820.818;  -58.900;  -59.000; -173.000
821.071; -163.925;-1041.000; -957.000
821.324; -107.825; -536.000; -540.000
821.577; -104.825; -457.000; -483.000
821.830;  -66.025; -270.000; -172.000
822.083; -116.725; -733.000; -288.000
822.336;  -59.900; -261.000; -167.000
822.589; -118.875; -805.000; -688.000
822.842; -148.175; -875.000; -770.000
823.094; -172.625;-1076.000;-1114.000
823.347; -143.600; -925.000; -729.000
823.600;   17.375;  402.000;  187.000
823.853;  -65.075; -311.000; -267.000
824.105;  -64.775; -331.000; -575.000
824.358;  -95.875; -617.000; -716.000
824.611;   31.775;  234.000;   40.000
824.863;  -62.975; -612.000; -591.000
825.116;   40.625;  -33.000;   27.000
825.368;   80.675; -366.000; -372.000
825.621;  176.600; -186.000; -240.000
825.873;   77.650; -704.000; -737.000
826.126;  546.000; -669.000; -641.000
826.378;11422.075; -389.000; -505.000
826.630; 3509.850; -890.000; -898.000
826.883;   55.600; -754.000; -693.000
827.135;   53.750; -279.000; -270.000
827.387; -120.950; -893.000; -839.000
827.639;  -24.425;  -86.000;   32.000
827.892; -128.125; -742.000; -582.000
828.144; -144.075; -848.000; -804.000
828.396;  -30.250;  104.000;  -80.000
828.648;  -90.900; -440.000; -333.000
828.900; -153.025; -702.000; -795.000
829.152; -108.225; -684.000; -683.000
829.404;  -77.050; -215.000; -267.000
829.656;   -3.750;  321.000;  214.000
829.908;  -30.450;  393.000;  229.000
830.160; -167.475;-1064.000;-1047.000
830.412; -111.500; -481.000; -430.000
830.664; -117.875; -557.000; -665.000
830.916;  -84.350; -268.000; -206.000
831.167; -159.650;-1073.000; -951.000
831.419; -112.825; -623.000; -566.000
831.671; -142.850; -764.000; -809.000
831.923;  -86.775; -311.000; -447.000
832.174;  -74.625; -273.000; -331.000
832.426; -111.250; -493.000; -582.000
832.678; -172.550;-1043.000;-1091.000
832.929; -165.250; -947.000; -935.000
833.181;  -61.450; -575.000; -677.000
833.432;  -61.825;  -59.000; -186.000
833.684;  -19.750;  112.000;  -27.000
833.935; -131.125; -610.000; -566.000
834.187; -115.100; -829.000; -823.000
834.438;  -63.050;  -58.000;  -25.000
834.689;  -58.000; -255.000; -123.000
834.941;  -64.450; -343.000; -244.000
835.192;  -89.000; -590.000; -533.000
835.443; -110.675; -419.000; -506.000
835.695;  -10.900;  138.000;  -16.000
835.946; -110.350; -608.000; -378.000
836.197; -102.100; -599.000; -622.000
836.448;  -89.925; -528.000; -395.000
836.699;  -65.025; -253.000; -341.000
836.950;   -5.850;   72.000;    7.000
837.201; -132.375;-1003.000; -987.000
837.452;  -54.625; -356.000; -170.000
837.703; -103.875; -791.000; -737.000
837.954;  -43.700; -205.000; -365.000
838.205;  -84.250;-1029.000;-1008.000
838.456;  164.275; -196.000; -282.000
838.707;   10.075; -423.000; -519.000
838.958;   10.275; -634.000; -647.000
839.209;  307.775;   18.000;   40.000
839.460;  132.925; -439.000; -201.000
839.710;  175.900; -135.000; -297.000
839.961;  420.150;  730.000;  612.000
840.212;  343.300; -382.000; -497.000
840.462; 1057.900; -328.000; -277.000
840.713;17389.925; -571.000; -536.000
840.964; 8493.425;  -62.000; -143.000
841.214;  566.475; -384.000; -624.000
841.465;  607.300; -214.000; -141.000
841.715;  552.950; -417.000; -380.000
841.966;  677.225; -746.000; -685.000
842.216; 8249.900; -330.000; -431.000
842.466;37504.000; -169.000; -313.000
842.717; 2602.525; -964.000; -952.000
842.967;  325.400; -635.000; -641.000
843.217;  301.800;   20.000;   28.000
843.468;   67.125; -104.000; -132.000
843.718;  -22.600; -718.000; -726.000
843.968;  -88.800; -837.000; -765.000
844.218;   33.250; -315.000; -262.000
844.469;  -28.875; -577.000; -561.000
844.719; -100.275; -537.000; -682.000
844.969;  -99.750; -550.000; -580.000
845.219; -135.750; -814.000; -862.000
845.469;  -85.175; -392.000; -342.000
845.719; -138.350; -792.000; -884.000
845.969;  -19.300;  119.000;  174.000
846.219; -123.150; -738.000; -720.000
846.469;   14.225;  464.000;  432.000
846.718;  -47.750; -115.000;   31.000
846.968; -130.375; -827.000; -827.000
847.218;  -40.100; -224.000; -371.000
847.468; -116.550; -586.000; -555.000
847.718; -145.425; -827.000; -798.000
847.967; -135.300; -826.000; -915.000
848.217;  -82.025; -449.000; -569.000
848.467;  -73.700; -405.000; -376.000
848.716; -106.225; -708.000; -725.000
848.966;   -9.850; -372.000; -358.000
849.215;  -62.775; -428.000; -419.000
849.465;  -86.250; -785.000; -615.000
849.714; -132.750;-1132.000;-1150.000
849.964;  -66.625; -551.000; -613.000
850.213;  -14.400; -393.000; -355.000
850.463;   69.450;  137.000;  340.000
850.712;   21.100; -542.000; -567.000
850.961;   17.750; -739.000; -678.000
851.211;  110.275; -513.000; -504.000
851.460;  169.250; -635.000; -650.000
851.709;  573.550;  -25.000;   18.000
851.958; 9572.875; -912.000; -750.000
852.208;14342.175; -859.000; -879.000
852.457;  563.025; -181.000;  -13.000
852.706;   95.850; -791.000; -823.000
852.955;   13.100; -507.000; -528.000
853.204;  -65.925; -521.000; -461.000
853.453;  -90.800; -418.000; -458.000
853.702; -116.700; -660.000; -750.000
853.951; -118.675; -532.000; -520.000
854.200; -116.200; -613.000; -562.000
854.449; -135.025; -695.000; -661.000
854.698;  -92.900; -340.000; -279.000
854.946;  -67.975; -181.000; -284.000
855.195; -146.325; -843.000; -868.000
855.444;  -94.950; -395.000; -420.000
855.693; -117.725; -345.000; -432.000
855.941; -107.450; -387.000; -516.000
856.190;  -50.600; -256.000; -382.000
856.439; -140.750; -652.000; -703.000
856.687;  -39.000;  -99.000;  -72.000
856.936; -129.000; -621.000; -323.000
857.184; -174.575;-1067.000;-1020.000
857.433; -113.450; -423.000; -512.000
857.681; -161.750; -989.000; -953.000
857.930;  -81.625; -282.000; -433.000
858.178; -171.150; -856.000; -929.000
858.427; -154.575; -802.000; -781.000
858.675; -117.475; -377.000; -544.000
858.923; -107.300; -527.000; -819.000
859.172; -173.025;-1094.000;-1070.000
859.420;  -93.050; -339.000; -239.000
859.668; -124.175; -624.000; -628.000
859.916;  -31.025;  109.000;  115.000
860.164; -111.000; -699.000; -603.000
860.413;  239.575; -878.000; -696.000
860.661;  283.425; -709.000; -577.000
860.909;  -95.050; -339.000; -325.000
861.157;  -89.825; -277.000; -444.000
861.405; -132.575; -534.000; -670.000
861.653;   13.575;  310.000;  310.000
861.901;  151.175; -543.000; -613.000
862.149;   26.775; -801.000; -824.000
862.396;  -86.050; -297.000; -187.000
862.644;  -88.850; -368.000; -347.000
862.892;  -38.550;   98.000;  138.000
863.140; -107.125; -549.000; -530.000
863.388; -165.050; -815.000; -759.000
863.635; -120.175; -642.000; -601.000
863.883;  -23.525;  231.000;  190.000
864.131; -100.225; -288.000; -357.000
864.378; -142.050; -675.000; -540.000
864.626;  -90.475; -347.000; -415.000
864.873; -132.025; -556.000; -505.000
865.121; -142.450; -714.000; -799.000
865.368;  -54.250; -173.000;   75.000
865.616;  -25.925;  -33.000;  -40.000
865.863;  -87.800; -462.000; -506.000
866.111; -110.825; -795.000; -824.000
866.358;   23.700; -426.000; -420.000
866.605; 2020.725;  -64.000; -804.000
866.853; 2585.800; -621.000; -537.000
867.100;  -23.300; -728.000; -775.000
867.347; -100.450; -672.000; -611.000
867.594;  -80.475; -740.000; -714.000
867.841;   88.525;   97.000;   17.000
868.089; -141.000; -746.000; -698.000
868.336; -116.225; -477.000; -420.000
868.583; -140.200; -637.000; -741.000
868.830;  -68.550; -131.000; -170.000
869.077; -161.150; -859.000; -787.000
869.324; -136.100; -502.000; -458.000
869.571; -121.850; -398.000; -430.000
869.818; -121.775; -485.000; -439.000
870.065; -108.325; -439.000; -513.000
870.311; -118.550; -456.000; -542.000
870.558; -100.075; -332.000; -311.000
870.805;  -97.675; -320.000; -384.000
871.052; -107.775; -494.000; -369.000
871.298;  -69.350; -204.000; -131.000
871.545;  -70.400; -151.000; -185.000
871.792;  -94.075; -173.000; -222.000
872.038;  -73.700;   43.000; -126.000
872.285; -130.675; -496.000; -387.000
872.532;  -96.925; -357.000; -387.000
872.778;   -4.675;  556.000;  403.000
873.025;  -97.600; -384.000; -359.000
873.271;   -7.675;  501.000;  578.000
873.517;  -28.025; -133.000; -209.000
873.764;  -44.400; -193.000;  -80.000
874.010;  -73.100; -143.000; -230.000
874.257;  -52.400;  123.000;   90.000
874.503; -125.950; -579.000; -479.000
874.749;  -77.150;   31.000;  275.000
874.995;  -78.025;  -80.000;  -20.000
875.242; -123.275; -540.000; -478.000
875.488; -105.800; -414.000; -439.000
875.734;  -58.800; -106.000; -234.000
875.980;  173.225; -872.000;-1032.000
876.226;  414.200; -157.000; -255.000
876.472;  -13.700;  343.000;  237.000
876.718;  -59.425;  184.000;  158.000
876.964;  -45.400;   56.000;   55.000
877.210; -144.100; -547.000; -677.000
877.456; -140.525; -630.000; -557.000
877.702; -172.625; -821.000; -832.000
877.948; -119.175; -377.000; -497.000
878.193;  -14.725;  361.000;  255.000
878.439;  -99.300; -487.000; -472.000
878.685;  -99.700; -272.000; -343.000
878.931; -125.525; -618.000; -676.000
879.176;  -84.500; -201.000; -201.000
879.422; -172.000; -933.000; -820.000
879.668;   59.425;   10.000;   79.000
879.913;  159.425;   53.000;  137.000
880.159;  -64.750; -112.000;  -17.000
880.404;  -70.200; -152.000; -162.000
880.650;  -57.825;   91.000;  141.000
880.895; -152.025; -670.000; -710.000
881.141; -116.925; -454.000; -428.000
881.386; -141.175; -503.000; -658.000
881.631; -105.750; -311.000; -166.000
881.877;  -33.425;  112.000;  -13.000
882.122; -146.000; -684.000; -600.000
882.367;  -92.525; -136.000; -186.000
882.612;  -86.150;  -80.000; -176.000
882.858; -157.375; -877.000; -823.000
883.103; -114.125; -297.000; -267.000
883.348; -147.300; -759.000; -852.000
883.593; -157.900; -677.000; -602.000
883.838;  -51.650; -311.000;  -24.000
884.083;   20.575;  353.000;  288.000
884.328;  -96.925; -564.000; -545.000
884.573;  -65.500; -196.000; -143.000
884.818;  173.225; -694.000; -531.000
885.063;  233.900; -348.000; -315.000
885.308;  -92.400; -475.000; -398.000
885.553;  -20.000;  245.000;  325.000
885.797; -133.500; -545.000; -615.000
886.042;  -59.450;    8.000;   58.000
886.287; -100.200; -253.000; -211.000
886.532;  -49.475;   26.000;  204.000
886.776; -108.325; -407.000; -525.000
887.021; -152.875; -621.000; -574.000
887.265; -153.175; -685.000; -689.000
887.510; -144.575; -557.000; -496.000
887.755;  -78.800; -194.000; -164.000
887.999; -132.375; -552.000; -575.000
888.244;  -50.750;  -58.000;  161.000
888.488;  -21.900;  371.000;  393.000
888.732; -129.625; -368.000; -520.000
888.977; -144.825; -622.000; -567.000
889.221; -144.550; -683.000; -659.000
889.465; -118.975; -422.000; -566.000
889.710;  -85.950;  -56.000; -299.000
889.954;  -10.300;  579.000;  467.000
890.198; -142.775; -584.000; -707.000
890.442; -161.425; -716.000; -712.000
890.687; -158.725; -800.000; -753.000
890.931; -106.325; -273.000; -210.000
891.175; -141.775; -502.000; -500.000
891.419;  -92.650; -105.000; -110.000
891.663;  -96.925; -239.000; -112.000
891.907; -176.425; -801.000; -545.000
892.151; -167.000; -920.000; -815.000
892.395; -114.975; -274.000; -387.000
892.638;  -38.575;  408.000;  291.000
892.882; -185.800; -780.000; -867.000
893.126;   -2.450;  758.000;  558.000
893.370;  -95.200; -167.000; -168.000
893.614; -138.300; -714.000; -715.000
893.857; -110.450; -183.000; -197.000
894.101; -145.025; -527.000; -631.000
894.345;  -82.375;  300.000;  150.000
894.588;   15.625;  569.000;  380.000
894.832; -103.450; -178.000;  -84.000
895.075;  -80.550;   15.000;  -92.000
895.319; -135.650; -552.000; -420.000
895.563; -125.175; -413.000; -353.000
895.806; -151.825; -628.000; -741.000
896.049;  -62.400; -576.000; -368.000
896.293;   93.600;  527.000;  405.000
896.536;  -73.225; -465.000; -468.000
896.779;  -70.525; -149.000;   -1.000
897.023; -131.675; -751.000; -714.000
897.266;  -35.400;  325.000;  269.000
897.509; -176.775; -900.000; -901.000
897.752;  -61.550;  149.000;  171.000
897.996; -185.075; -972.000; -864.000
898.239;  -61.400;  168.000;  102.000
898.482; -121.850; -431.000; -453.000
898.725;  -49.275;  101.000;   53.000
898.968; -147.125; -609.000; -744.000
899.211; -103.250; -513.000; -361.000
899.454; -119.450; -633.000; -539.000
899.697;  -72.975;   90.000;  -43.000
899.940; -158.650; -761.000; -757.000
900.182; -113.975; -335.000; -405.000
900.425; -105.000; -150.000; -298.000
900.668;  -24.075;  491.000;  350.000
900.911; -109.450; -292.000; -345.000
901.154;  -62.725;  141.000;   -3.000
901.396; -123.775; -407.000; -412.000
901.639; -145.225; -430.000; -496.000
901.882; -176.725; -790.000; -809.000
902.124;  -87.625;  -29.000; -143.000
902.367; -114.200; -315.000; -361.000
902.609; -150.775; -476.000; -453.000
902.852;  -91.525; -108.000; -260.000
903.094; -126.475; -458.000; -337.000
903.337;  -51.350;  -26.000;   53.000
903.579; -119.525; -228.000; -441.000
903.821; -154.175; -597.000; -744.000
904.064;  -69.850;   85.000;  127.000
904.306;  -79.900; -126.000; -166.000
904.548; -113.000; -152.000; -366.000
904.790; -108.250; -195.000; -340.000
905.033; -149.250; -625.000; -577.000
905.275; -130.625; -513.000; -524.000
905.517;   27.575;  468.000;  256.000
905.759;  -62.350; -667.000; -761.000
906.001;  -96.925; -322.000; -369.000
906.243;  -71.900; -162.000; -224.000
906.485;   91.525; -265.000; -207.000
906.727;  139.225; -499.000; -542.000
906.969;  -41.275;  -30.000; -135.000
907.211;  127.725; -316.000; -382.000
907.453;  263.950; -188.000; -237.000
907.695;   32.700; -158.000; -385.000
907.936;   36.450;  818.000;  706.000
908.178;  -48.075;   92.000; -135.000
908.420;  -74.475; -111.000; -162.000
908.662; -137.500; -633.000; -682.000
908.903;  -96.550; -208.000; -123.000
909.145;  -63.875; -240.000; -305.000
909.386;    6.150;  315.000;  280.000
909.628;   19.500;  363.000;  397.000
909.870;   -3.425;   29.000;  264.000
910.111; -109.475; -809.000; -949.000
910.353;   20.250; -123.000; -161.000
910.594;   15.000; -574.000; -606.000
910.835;   79.925; -265.000; -326.000
911.077;  169.875; -503.000; -604.000
911.318;  303.600; -505.000; -471.000
911.559;  491.100; -577.000; -880.000
911.801; 1330.025; -284.000; -280.000
912.042; 9846.425;  -50.000; -159.000
912.283;29080.575;  404.000;  371.000
912.524; 5350.125; -396.000; -457.000
912.765;  547.325; -193.000;   79.000
913.006;  281.500; -307.000; -338.000
913.247;   72.925; -270.000; -290.000
913.488;   21.750;  -43.000;   30.000
913.729;  -82.475; -373.000; -373.000
913.970;  -63.075;  -96.000; -292.000
914.211;  -77.925; -160.000; -198.000
914.452;  -64.025; -118.000;  -11.000
914.693;    2.300;  510.000;  592.000
914.934;   11.975;  510.000;  440.000
915.175;  -70.050;   53.000;  -95.000
915.415;  -74.400; -137.000;   27.000
915.656;  -72.600;  -28.000;  192.000
915.897; -105.550; -252.000;  -82.000
916.137;  -88.300;   74.000;   -9.000
916.378; -121.200; -573.000; -517.000
916.619;  -90.900; -159.000;  -63.000
916.859;  -33.500;  303.000;  330.000
917.100;  117.450; 1655.000; 1070.000
917.340;   48.150;  930.000;  728.000
917.581;   42.575;  965.000;  789.000
917.821;  -21.875; -171.000;  143.000
918.061;   19.700; -199.000;  -72.000
918.302;  -29.550; -152.000; -211.000
918.542;  -38.100;  -22.000;    3.000
918.782;   41.500;  369.000;  377.000
919.023;  122.075;  360.000;  427.000
919.263; 1293.375; 8131.000;  202.000
919.503; 1207.625; -137.000;  -54.000
919.743;  675.825;  390.000;  266.000
919.983;  318.225; -134.000;  -26.000
920.223;   81.875;  135.000;   14.000
920.463;  133.175;  631.000;  554.000
920.703;  138.775;   84.000;   39.000
920.943;  161.975; -110.000;   90.000
921.183;  225.425; -414.000; -405.000
921.423;  495.300;  307.000;  546.000
921.663;  748.825; -174.000; -257.000
921.903; 1531.200;  237.000;  173.000
922.143; 8161.775;  372.000;  389.000
922.383;33618.750;  158.000;  115.000
922.622;13681.225; -120.000;  -15.000
922.862; 1381.925;  796.000;  785.000
923.102;  509.800;  -51.000;   33.000
923.341;  206.200;   59.000;   74.000
923.581;   92.600;  450.000;  360.000
923.821;   15.325;  301.000;  398.000
924.060;    1.075;  351.000;  193.000
924.300;  -58.475;  -16.000; -128.000
924.539;  -12.150;  584.000;  473.000
924.779;    3.875;  812.000;  597.000
925.018;  -35.275;  247.000;  353.000
925.257;  -17.900;  595.000;  666.000
925.497;  -39.975;  447.000;  412.000
925.736;  -88.950;  -35.000;  102.000
925.975;    5.575;  687.000;  669.000
926.214;   17.150;  907.000;  850.000
926.454;   26.275;  706.000;  757.000
926.693;  -38.675;  419.000;  543.000
926.932;   27.425; 1021.000;  825.000
927.171;   61.175; 1107.000; 1044.000
927.410;   34.350; 1144.000;  967.000
927.649;    8.275;  924.000;  742.000
927.888;  -13.200;  590.000;  564.000
928.127;  -10.500;  680.000;  678.000
928.366;   26.575;  842.000;  826.000
928.605;   25.375;  831.000;  737.000
928.844;  211.800; 1451.000; 1393.000
929.083;  607.225;  770.000;  613.000
929.321;  369.200; 1335.000; 1359.000
929.560;   88.725; 1158.000; 1122.000
929.799;  -17.000;  574.000;  475.000
930.038;   80.300; 1025.000; 1394.000
930.276;  -52.025;  334.000;  397.000
930.515;    4.100;  827.000;  681.000
930.753;  -10.125;  614.000;  589.000
930.992;  -33.175;  664.000;  717.000
931.230;    3.200;  847.000;  847.000
931.469;  163.275; 2162.000;  892.000
931.707;   66.900;  840.000;  751.000
931.946;   50.550; 1278.000; 1344.000
932.184;   51.400; 1437.000; 1175.000
932.423;   45.400; 1265.000;  963.000
932.661;   77.550; 1296.000; 1428.000
932.899;   28.450;  987.000;  821.000
933.137;   26.800;  754.000;  564.000
933.376;  125.600; 1664.000; 1335.000
933.614;  156.075; 1759.000; 1196.000
933.852;   43.175; 1357.000; 1171.000
934.090;  147.975; 1722.000; 1747.000
934.328;  102.850; 1252.000; 1457.000
934.566;   85.100; 1431.000; 1110.000
934.804;  126.525; 1263.000; 1309.000
935.042;  432.600; 1861.000; 1850.000
935.280; 1702.800; 2088.000; 2063.000
935.518; 1833.025; 2113.000; 2007.000
935.756;  391.450; 2481.000; 2316.000
935.994;  182.200; 1808.000; 1751.000
936.231;  358.000; 2890.000; 2950.000
936.469;  203.475; 2367.000; 2378.000
936.707;  151.150; 2220.000; 2167.000
936.945;  218.950; 2825.000; 2882.000
937.182;  195.550; 2679.000; 2741.000
937.420;  299.050; 3602.000; 3031.000
937.657;  401.650; 3365.000; 3478.000
937.895;  360.175; 3331.000; 3488.000
938.133;  309.550; 3540.000; 3528.000
938.370;  350.425; 3896.000; 4191.000
938.607;  402.000; 4488.000; 4205.000
938.845;  546.250; 5587.000; 5549.000
939.082;  487.675; 5387.000; 5177.000
939.320;  551.200; 5799.000; 5728.000
939.557;  643.225; 6549.000; 6491.000
939.794;  723.500; 7285.000; 7097.000
940.031;  892.700; 8421.000; 8368.000
940.269; 1117.375; 9552.000; 9107.000
940.506; 1115.300;10901.000;10507.000

