
Integration time [ms]: 200.000
Averaging Nr. [scans]: 10
Smoothing Nr. [pixels]: 0
Data measured with spectrometer [name]: 2101013U2
Wave   ;Sample   ;Dark     ;Reference
[nm]   ;[counts] ;[counts] ;[counts] 

394.013;   11.158; -450.257; -315.536
394.305;   55.157; -461.258; -419.536
394.596;  500.977; -676.269; -527.514
394.887; 1287.490; -796.268; -654.518
395.178;  587.814;  145.736;   11.476
395.470;   31.822; -210.263; -356.526
395.761;  236.901;  305.734;  394.479
396.052;  109.580; -545.284; -306.489
396.343;   83.534; -557.276; -454.503
396.634;   56.610; -200.279; -290.497
396.926;  -23.412; -618.268; -565.517
397.217;  119.638;   11.725;  -17.504
397.508;  -23.250; -366.273; -154.507
397.799;  -54.690; -555.279; -571.497
398.090; -179.194; -973.280; -902.495
398.381;   64.822;   11.708;  -11.473
398.672; -120.677; -585.292; -742.473
398.963;    0.815; -348.279; -373.498
399.254;   67.730;   54.709; -209.475
399.545; -194.901;-1017.266; -883.520
399.836;  -31.774; -407.277; -343.501
400.127;   37.004; -205.295; -209.468
400.418;    9.346; -423.274; -392.506
400.709;   -1.704; -359.281; -333.493
401.000;   10.433; -268.291; -309.476
401.290;  149.355;  225.698;  115.545
401.581;   38.667; -166.286; -228.485
401.872;  -43.417; -542.298; -486.462
402.163;   46.098; -313.296; -252.467
402.454;   95.731; -123.291; -163.475
402.744;  -61.308; -844.297; -813.465
403.035;  255.016; -226.293;  -86.471
403.326;  294.426; -366.292; -384.474
403.617;  360.678;  204.701;  165.539
403.907;   89.485; -593.283; -679.490
404.198; 1253.120; -545.307; -599.446
404.489; 3238.589; -618.283; -588.491
404.779; 1078.958; -618.302; -660.456
405.070;  198.741;  -67.304; -174.451
405.360;  220.417; -259.293; -238.472
405.651;  293.566;  125.699;   98.542
405.942;  128.463;  209.714;  127.516
406.232;   67.775; -432.285; -413.487
406.523;  486.712;  641.706;  758.530
406.813;   -7.535; -579.286; -644.484
407.104;  333.522;  261.708;  144.527
407.394;   26.279; -604.299; -591.462
407.685;  167.874;  336.715;  222.513
407.975;   25.987; -400.283; -382.490
408.265;  122.442; -134.289; -190.478
408.556;   -7.972; -472.291; -459.475
408.846;  280.512;  474.706;  429.530
409.137;   86.048;   -1.288; -216.480
409.427;   33.374; -193.285; -271.487
409.717;  -68.847; -776.273; -692.508
410.007;  150.869;    4.715; -170.486
410.298;   68.706; -360.295; -342.469
410.588;   39.872; -495.285; -510.486
410.878; -103.243; -792.287; -873.482
411.168;   30.784; -481.298; -478.463
411.459;   39.983; -295.283; -242.489
411.749;  -39.073; -609.292; -507.474
412.039;  -96.853; -755.289; -386.480
412.329;  186.120;   40.722;  132.501
412.619;   99.865;  -62.286; -148.485
412.909;  359.944;  639.711;  594.521
413.199;  165.006; -130.280; -251.495
413.490;  344.237;  521.710;  352.523
413.780;  -78.791;-1013.279; -913.496
414.070;  250.735;  -46.276;  235.497
414.360;   97.017; -729.278; -666.498
414.650;  123.754; -726.288; -688.482
414.940;  230.009; -538.280; -441.496
415.230;  567.052;   50.712;   74.519
415.520; 3553.676;  155.730;   66.486
415.809;13162.196; -305.281; -125.493
416.099;10463.128; -388.277; -229.501
416.389; 3053.144;  435.726;  236.494
416.679; 1853.925;   91.738;   85.473
416.969;  293.061; -527.287; -503.483
417.259;  447.710;  341.721;  171.503
417.549;  532.995;  522.718;  318.508
417.838;  925.790; -205.268; -147.518
418.128; 3060.041;  650.710;  492.522
418.418; 2387.157; -491.272; -579.509
418.708; 1796.844;    9.726;  -48.506
418.997; 6171.141; -474.275; -480.505
419.287; 6384.149; -733.273; -790.507
419.577; 6265.283; -160.283; -123.489
419.866;20107.726; -588.277; -498.501
420.156;21237.673; -242.270;  -55.513
420.446; 4209.719; -112.263;  -26.526
420.735;  503.369; -376.271; -446.512
421.025;  976.917; 1830.722;  315.502
421.314;  496.567; -203.271; -226.512
421.604; 1105.484;   89.732;  233.484
421.893;  495.464; -705.271; -602.511
422.183;  102.019; -487.263; -461.526
422.472;  264.666;  -36.271; -107.511
422.762;  250.303; -416.266; -379.521
423.051;   36.035; -916.276; -916.503
423.341;  157.351; -491.273; -439.507
423.630;  263.708; -121.265;   15.477
423.919;  284.540;   58.725;   49.495
424.209;  245.724;  -31.263;   56.473
424.498;  331.988;   68.732;  161.483
424.787;  570.193; -535.267; -601.518
425.077; 1870.907;   34.735;   29.478
425.366; 2480.528; -734.262; -744.528
425.655; 5510.951;  639.727;  259.493
425.945;10719.128; -313.247; -268.554
426.234; 6366.445;  117.741;  300.467
426.523; 2708.849;  -86.259; -350.534
426.812; 3941.900;  107.734;  159.480
427.101; 5809.881; -127.269; -323.515
427.390; 7245.276;  -55.270;  -86.514
427.680; 1666.865; -624.257; -411.538
427.969;  352.373; -330.255; -301.540
428.258;  177.058; -385.257; -477.536
428.547;  484.161;  449.728;  397.490
428.836;  718.985; -421.253; -398.543
429.125; 1065.651; -199.259;  -72.534
429.414;  490.703; -330.251; -294.548
429.703; 1814.803; -231.251; -213.548
429.992; 4958.806; -938.250; -828.549
430.281; 3433.514; -397.264; -331.524
430.570;  471.496;  -21.252;   32.454
430.859;  605.349;  279.741;  352.466
431.148;  567.624;  636.752;  631.446
431.437;  405.695;  391.748;  367.454
431.725;   42.459; -544.257; -481.536
432.014;  -44.509; -845.253; -756.545
432.303;  239.383; -149.239; -105.569
432.592;  325.519; -460.263; -178.525
432.881;  539.025; -601.248; -437.554
433.169; 3399.974; -343.255;  -61.540
433.458; 6592.009;  445.765;  540.424
433.747; 2864.332; -397.261; -289.529
434.036;  512.764; -275.242; -280.564
434.324; 1140.115; -395.249; -379.551
434.613; 2017.159;   40.757;  159.437
434.902;  828.375;  333.760;  439.433
435.190;  406.682;   75.761;  295.431
435.479;  257.545;  -52.245;   83.441
435.767;   58.051; -411.244; -427.561
436.056;  154.761; -340.242; -294.563
436.345;  191.777; -372.240; -223.568
436.633;  357.212;   60.750;  383.450
436.922;  292.179;  208.760;  414.432
437.210;  458.801; -194.236;    1.426
437.499; 1251.907; -583.235; -432.576
437.787; 1481.401; -339.236;  -10.574
438.075;  398.186;   56.761;  162.430
438.364;  475.888;  -44.238;  250.429
438.652;  252.769; -286.226; -138.592
438.941;  157.941;    3.770;  269.415
439.229;  -49.507; -665.252; -466.545
439.517;   61.714; -160.234;  -85.577
439.806;  -54.319; -501.225; -290.595
440.094;  245.020;  377.766;  650.421
440.382;   59.223; -653.233; -302.580
440.670;  101.807; -361.235; -285.576
440.959;  -25.706; -347.223; -170.599
441.247;   65.650; -151.229; -109.587
441.535;   75.413; -266.235;   31.423
441.823;  -21.782; -497.234; -305.578
442.111;  188.453;  173.771;  327.412
442.400;  294.445; -628.245; -335.559
442.688;  931.519; -111.234; -620.579
442.976;  580.362; -786.213; -450.617
443.264;   36.186; -324.224; -364.597
443.552;   52.470; -258.226;   51.408
443.840;  224.511;  602.765;  876.423
444.128;  164.022;  265.767;  269.420
444.416;  -85.845; -694.228; -312.588
444.704;  -32.283; -465.219;  -92.605
444.992;   52.872;   -0.226;  240.407
445.280;    0.742; -517.230;  -94.585
445.568;  -65.835; -694.212; -396.618
445.856;  235.105; -174.221;  357.398
446.143;  419.714;  -54.220;   -7.604
446.431;  514.058;  -25.228;  625.411
446.719;  270.532;  489.783;  675.391
447.007;  252.437;  481.769;  705.416
447.295;  222.792;  597.777;  871.402
447.583;  -10.352; -464.229;  -34.587
447.870;   16.403; -434.221; -202.601
448.158;  330.641; -104.230;  129.415
448.446;  138.215; -800.219; -338.604
448.733;  131.387;   13.776;  269.403
449.021;  225.965;   60.788;  341.382
449.309;  166.776; -296.210;  208.379
449.596;  230.829;  128.783;   59.392
449.884;   64.798; -571.222; -325.600
450.172;    3.262; -756.227; -406.590
450.459;  410.449;  645.786;  780.387
450.747; 1266.128; -411.218; -147.608
451.034; 4106.159;  493.772;  889.411
451.322; 3262.252; -413.214; -170.614
451.609;  375.088;  292.777;  508.403
451.897;  278.925; -550.203; -183.634
452.184;  922.492; -622.223; -400.598
452.472; 1019.793;   97.792;  269.375
452.759;  384.716;  512.781;  864.395
453.047;   33.263; -407.212; -125.617
453.334;   -1.278; -732.219; -216.606
453.621;    0.953; -438.214; -161.615
453.909;  155.419;   13.796;  384.368
454.196;  103.254; -299.199; -123.641
454.483;  252.735;  317.798;  540.364
454.771;  117.595; -215.208;  196.374
455.058;   61.398; -316.207;  102.374
455.345;  140.996;   71.807;  344.347
455.632;  145.900; -128.207;  235.373
455.919;   88.971;  -82.196;  182.354
456.207; -117.043; -774.198; -450.642
456.494;  -31.256; -475.200;  -66.639
456.781;   11.031; -399.202; -198.635
457.068;   93.805; -253.206;  -29.628
457.355;  -37.894; -698.206; -401.629
457.642;  -26.090; -552.205; -290.630
457.929;  -50.111; -778.194; -417.651
458.216;  -10.137; -575.212; -354.617
458.503;  226.393; -173.193;  -19.652
458.790;   54.693; -864.208; -630.625
459.077;  183.535;  -77.202;  110.364
459.364;  429.884; -350.195; -210.649
459.651;  997.403;  -46.206;  220.372
459.938;  326.486; -864.209; -665.623
460.225;  153.738;  132.799;  276.363
460.512; -151.831; -836.197; -688.645
460.799;  156.027;  -32.218;  320.392
461.086;   17.748; -370.200; -251.640
461.372;   -6.543; -509.198; -279.642
461.659;   88.372; -165.196;  108.354
461.946;   36.992; -445.193;  -54.651
462.233;  333.246;  842.800;  888.361
462.519;   81.043; -814.201; -464.639
462.806;  408.169; -768.197; -497.645
463.093;  473.608; -445.191;  -66.656
463.380; -185.461; -920.186; -824.664
463.666;   40.071; -259.197;  -18.646
463.953;   41.880; -406.195; -243.648
464.239;  144.880; -173.195;  -77.648
464.526;  390.388;  413.806;  743.350
464.813;  179.317; -565.190; -304.658
465.099;  316.493;  606.807;  607.348
465.386;  411.496;  903.807;  921.348
465.672;  -80.531; -694.197; -522.645
465.959;  -42.570; -598.188; -520.662
466.245;  -13.004; -468.193; -359.652
466.532;  132.378; -109.195;   63.352
466.818;   45.939; -357.186; -216.664
467.104;  -30.430; -488.182; -415.672
467.391;  -65.182; -628.189; -459.658
467.677;   63.442; -289.186;    9.335
467.964;  -36.577; -682.189; -471.660
468.250;   70.144; -331.186; -160.665
468.536;  152.619;   90.811;  180.341
468.822;  -92.147; -821.184; -574.668
469.109;  257.932;  351.827;  471.311
469.395;  353.603;  729.808;  787.346
469.681;  200.021;   46.811;  156.341
469.967;  650.225; -699.188; -382.660
470.254; 1396.731; -494.188; -306.662
470.540;  916.671; -601.196; -476.646
470.826;  119.779; -488.181; -397.675
471.112;  298.356;  288.816;  113.331
471.398;  108.660; -253.183;  -58.670
471.684;   11.301; -626.177; -447.680
471.970; -121.318; -918.180; -981.675
472.256;   26.002; -521.192; -441.654
472.542;  -12.359; -499.171; -434.691
472.828;  -38.133; -743.182; -607.672
473.114;   -5.526; -380.166; -283.700
473.400;   33.113; -504.175; -293.684
473.686;   38.379; -452.166; -400.701
473.972;   78.725; -230.174; -131.687
474.258; -137.967; -925.173; -843.689
474.544;  199.494; -183.178;   -2.679
474.830;  266.315;  -65.175;   45.316
475.116;  385.118; -123.190; -196.658
475.401;  417.384; -558.180; -467.676
475.687;   78.783; -725.180; -718.676
475.973;  -85.527; -673.181; -770.673
476.259;  369.416;  736.825;  764.315
476.544;  246.807; -539.176; -437.682
476.830;  605.938; -398.172; -322.690
477.116;  567.406; -430.177; -336.682
477.401;  239.583;  346.820;  358.324
477.687;   -3.587; -289.175; -405.684
477.973;  102.876;   21.819;   28.326
478.258;  -44.905; -448.163; -348.706
478.544;   86.348;   21.815;   61.334
478.829; -110.955; -818.171; -738.692
479.115;  -88.162; -749.172; -651.690
479.401;  -33.179; -444.174; -449.686
479.686;   42.082; -253.180;  -74.676
479.972; -112.902; -886.178; -776.680
480.257;   51.376; -258.166;  -65.700
480.542;  -27.752; -614.170; -469.693
480.828;  492.012; 1288.824; 1392.317
481.113;  -70.290; -464.176; -426.683
481.399;   16.313; -236.161; -202.711
481.684;  -60.525; -620.166; -462.700
481.969;   81.824; -158.159;  -73.713
482.255;   15.456; -439.169; -285.695
482.540;   14.998; -569.178; -441.680
482.825;    7.636; -395.187; -404.663
483.110;  138.659;  -85.169; -105.696
483.396;  100.240; -840.157; -652.718
483.681;  566.825;  543.826;  730.313
483.966;   11.719; -696.160; -700.712
484.251;  -11.076; -404.174; -310.687
484.536;  -10.617; -356.165; -378.703
484.822;   19.026; -205.173; -218.687
485.107;  -60.630; -599.152; -502.726
485.392;  294.488;  662.836;  541.296
485.677;  163.367;  354.832;  163.302
485.962;  213.839;  160.843;  270.283
486.247;  129.101;  -14.162;   -8.707
486.532;   65.176; -178.166; -325.701
486.817;  212.909;  381.839;  431.291
487.102;   24.257; -453.154; -514.722
487.387;  384.242; -637.156; -652.718
487.672;  770.692; -154.164;  -38.705
487.957;  481.015; -394.160; -286.711
488.241;  203.783; -290.150; -314.729
488.526;  545.271; -280.152; -148.726
488.811;  640.600; -881.177; -818.680
489.096;  479.859; -666.154; -702.723
489.381;  369.568;    3.847;  162.275
489.666;  189.113; -428.161; -510.710
489.950;  328.061;  558.846;  627.277
490.235;  -66.321; -480.151; -458.728
490.520;  -88.088; -756.161; -723.710
490.804; -131.857; -827.156; -736.719
491.089;  -35.005; -469.149; -299.732
491.374;   50.291; -132.164;  -75.704
491.658;  -99.296; -817.147; -717.735
491.943;   48.174; -657.152; -609.727
492.227;  165.054; -178.155;  -38.721
492.512;    6.038; -294.157; -341.717
492.797; -109.610; -713.149; -716.731
493.081; -113.794; -588.147; -598.735
493.366; -118.586; -751.161; -635.711
493.650;  330.147;  831.859;  917.254
493.935;   -5.197; -648.147; -447.734
494.219; -126.663; -778.142; -687.743
494.503; -125.914; -585.150; -487.730
494.788;   83.132;   46.842;   74.285
495.072;  192.484;  184.850;  434.271
495.356;   69.397; -463.148; -343.733
495.641;  241.711; -812.146; -736.736
495.925;  133.247; -976.156; -903.719
496.209;   -7.806; -599.149; -451.732
496.494; -127.363; -763.142; -544.744
496.778;   13.157; -364.154; -360.722
497.062; -139.053; -819.156; -627.719
497.346; -106.384; -869.160; -640.711
497.631;  226.900;  580.852;  560.266
497.915;  121.919;  -64.145;  175.261
498.199;  -26.560; -341.157; -277.718
498.483;   -9.530; -562.152; -508.725
498.767;  233.085;  301.850;  300.271
499.051;  215.593; -126.149; -100.732
499.335;  -67.009; -693.149; -739.731
499.619;  -52.675; -381.129; -423.767
499.903;   55.953; -272.155;  -65.721
500.187;   -9.238; -588.153; -316.724
500.471; -126.126; -796.152; -595.727
500.755;   90.713;   62.839;  -96.710
501.039;  -29.547; -270.155; -357.721
501.323;  107.448;  -21.141;  264.254
501.607;  -42.105; -447.163; -503.706
501.891;  -62.958; -607.156; -512.718
502.174; -114.872; -726.144; -585.741
502.458;  124.177;   89.849;  370.273
502.742;    9.867; -180.138; -191.751
503.026;   65.503; -412.147; -254.734
503.310;   89.023; -437.159; -375.713
503.593;   60.504; -464.147; -325.735
503.877;   56.498; -232.133; -156.760
504.161;  167.264;    2.847;  -50.724
504.444;  -36.367; -841.158; -710.716
504.728;  250.890; -487.164; -522.704
505.012;  476.482; -257.150;  -76.729
505.295;  341.013; -417.161; -212.711
505.579;  356.947; -256.156; -496.719
505.862;  499.916; -555.145; -333.738
506.146;  422.825; -681.159; -758.714
506.429;  454.525;  568.841;  461.286
506.713;   24.980; -732.151; -667.728
506.996;  275.356;   90.846;  295.278
507.280;  206.486; -633.165; -474.703
507.563;  166.051; -469.155; -261.721
507.847;   39.263; -423.153; -112.724
508.130;   24.914; -665.161; -456.711
508.413;   22.072; -758.167; -577.700
508.697;  212.472; -151.167;   12.300
508.980;   90.764; -422.153; -312.724
509.263;  -37.651; -466.155; -450.720
509.547;   43.582; -124.150;   82.271
509.830;   62.816; -172.160;  140.289
510.113;  140.147;  128.844;  298.281
510.396;  -13.432; -530.152; -300.725
510.680;   21.517; -818.145; -812.738
510.963;  508.160;  184.846;  180.277
511.246;  324.288; -493.150; -357.730
511.529;  190.821; -482.145;  -83.739
511.812;  252.595; -250.134;   10.241
512.095;  105.378; -740.151; -396.728
512.378;   30.707; -317.147; -245.736
512.661;  -44.528; -703.137; -623.753
512.944; -105.761; -750.142; -637.744
513.227;   60.370; -170.137; -171.752
513.510;  -27.872; -479.144; -671.741
513.793;  -34.649; -485.140; -435.747
514.076;  115.141;  -43.127;  -39.771
514.359;   79.395; -294.149; -135.732
514.642;   10.241; -442.142; -567.744
514.925;  632.350;  581.860;  561.253
515.208;  548.392; -498.134; -443.758
515.491;  403.103; -276.133; -182.761
515.773;  195.930; -410.143; -337.742
516.056; 1394.777;  249.864;  409.246
516.339; 1566.780; -754.136; -652.755
516.622; 1190.186; -518.150; -488.730
516.904; 1074.536;  882.857;  975.257
517.187;  309.469; -730.138; -523.752
517.470;  213.035; -568.143; -510.743
517.752;  227.182; -624.136; -470.756
518.035;  112.660; -708.139; -725.749
518.318;   94.580; -799.136; -744.755
518.600; 1317.905; -300.132; -325.762
518.883; 1840.140;  310.858;   88.256
519.165;  884.164; -585.138; -426.751
519.448;  280.905;  -61.132;  -19.762
519.730;   66.147; -573.126; -415.773
520.013;  372.000;  588.867;  664.240
520.295;  501.296;  -94.134;  -15.759
520.578;  995.615; -335.131; -305.764
520.860; 1160.105; -254.132;   56.238
521.143;  558.784; -763.135; -584.756
521.425;  283.756; -251.125; -279.775
521.707;  460.941; -622.127; -380.771
521.990; 1211.841; -199.127;  167.229
522.272; 1290.853; -116.140;   -4.748
522.554;  618.831; -237.143; -157.742
522.836;  229.795;  -24.134;   99.241
523.119;   91.302; -496.148; -189.734
523.401;   69.421; -448.130; -314.766
523.683;  -38.627; -865.137; -693.753
523.965;  289.868;  408.862;  260.248
524.247;  254.873;   54.878;  170.220
524.529;  141.796; -451.134; -367.759
524.812;  251.322;   -3.130;  191.234
525.094;  454.767; -773.138; -631.751
525.376;  882.463; -143.124;   78.223
525.658;  519.278; -441.136; -339.754
525.940; -101.887; -805.131; -671.764
526.222;    9.281; -188.136;  -88.755
526.504;   53.211; -190.131;   32.237
526.786;   13.798; -960.133; -647.760
527.068;  200.768; -124.123;  -67.778
527.349;  -54.224; -865.137; -774.754
527.631;   92.905; -137.132;   22.238
527.913;   27.340; -664.127; -450.771
528.195;   36.451; -761.125; -639.774
528.477;  200.292;  -93.134;  -30.758
528.759;  -40.578; -648.130; -522.766
529.040;  -12.433; -569.123; -293.778
529.322;   37.753; -235.125;  -10.774
529.604;   88.624;  -47.130;   93.233
529.886;  -20.754; -546.126; -302.773
530.167;  125.217;  232.870;  192.235
530.449;   47.507;    1.853;   63.265
530.731;  -40.228; -572.122; -459.779
531.012;  -31.112; -513.120; -216.784
531.294;   65.218; -118.116;  -43.792
531.575;  220.256;  290.875;  538.225
531.857;  -20.312; -548.135; -266.757
532.138;   86.647; -113.141;   40.254
532.420;  169.985;  294.865;  403.244
532.701;   30.700; -722.133; -751.760
532.983;  325.802;  232.867;  182.239
533.264;   98.845; -243.126;  175.228
533.546;  -17.519; -491.136; -508.755
533.827;  100.297;  173.867;   -1.759
534.109;   -0.312; -352.135;  -80.757
534.390;  -38.392; -725.132; -582.762
534.671;  165.085; -270.135;  -82.756
534.953;  -21.631; -751.123; -611.779
535.234;   15.707; -426.117; -255.789
535.515; -147.905; -891.119; -735.785
535.796;  -33.263; -431.128; -193.770
536.078; -222.037;-1050.124; -904.777
536.359;    1.069;  -22.123;    3.221
536.640;  -44.948; -480.125; -197.774
536.921;  162.628;  225.871;  143.232
537.202;  282.165;  -87.138;  -16.751
537.483;  399.815;  251.869;  377.236
537.764;  178.317;   17.870;   98.235
538.045;  -84.208; -543.134; -371.758
538.326; -101.971; -596.129; -447.768
538.607;  -64.458; -686.127; -476.771
538.888;  149.081;   98.879;    5.218
539.169;   33.077; -704.122; -535.781
539.450;  245.427;  236.871;   16.233
539.731;  129.584; -361.121; -182.783
540.012;   93.188;  199.880;  412.216
540.293;  101.259;   82.876;  158.224
540.574; -126.766; -895.113; -717.796
540.855;  360.583;  435.879;  377.218
541.136;  369.075;   47.878;  139.220
541.416;  199.522; -161.130; -220.766
541.697;   75.311; -274.131; -170.763
541.978;  685.687; -270.135; -315.757
542.259;  714.942; -211.127; -236.771
542.539;  384.614; -191.116; -186.790
542.820;  203.956;  461.875;  480.225
543.101;   79.518;  -52.145;  -77.738
543.381; -104.159; -638.127; -591.771
543.662;  247.340;  159.873; -254.771
543.942;  221.138; -751.127; -830.770
544.223;  720.976;  193.878;  161.219
544.504;  395.263; -275.124; -182.777
544.784;  310.746; -592.126; -408.773
545.065;  934.916;  104.884; -254.791
545.345; 1133.195;  227.881;   14.215
545.626;  840.434;  -14.113; -108.796
545.906;  598.417;   77.869;   98.235
546.186;  194.950;   92.874;  -95.773
546.467;  163.765;   99.877;  -95.778
546.747;  242.913;  264.884;  327.210
547.027;  280.962;   91.876;  111.223
547.308;  103.638; -376.127; -530.770
547.588;  342.530;  299.871;  371.232
547.868;  239.418;  458.870;  588.235
548.149;  279.122;  609.885;  593.207
548.429;   72.040; -347.127; -299.771
548.709;   58.588; -645.120; -461.784
548.989;  301.502;   84.882;   88.213
549.269; 1344.004;   10.868;  139.239
549.550; 2865.968;  215.877;  117.222
549.830; 2492.447; -758.111; -556.799
550.110;  511.053; -468.110; -320.801
550.390;  538.272; -128.122;  -56.779
550.670;  565.630; -868.114; -783.795
550.950;  465.183; -509.121; -471.782
551.230;  262.180;  549.879;  460.218
551.510;  -58.518; -381.121; -326.782
551.790;    4.359; -173.109; -127.803
552.070;  421.965;  940.877; 1181.223
552.350;  191.898; -492.119; -377.786
552.630;  377.778;   -2.121;   77.219
552.909;  257.117;  181.884;   73.209
553.189;  191.309;  -49.132;   33.237
553.469;   57.597; -703.119; -514.786
553.749;   66.243; -469.127; -357.772
554.029;  129.010;   33.883;  -24.790
554.308;  106.225; -154.115;  -37.794
554.588;   -6.063; -196.128; -204.770
554.868;   34.283; -366.121;  -47.782
555.147;   63.323; -114.115;  -46.793
555.427;  351.619; -260.116; -250.792
555.707; 2294.922; -284.115; -200.793
555.986; 2567.950; -719.111; -538.800
556.266; 1485.012;   23.884;   72.210
556.546;  -31.718; -888.121; -675.782
556.825;   57.129; -657.114; -556.794
557.105; 1140.535; -125.128;   17.230
557.384; 1241.016;  122.884;  187.209
557.664;  345.518; -717.116; -508.792
557.943;  -27.217; -557.121; -411.782
558.222;   53.804; -345.118; -344.788
558.502;  183.724; -116.115;  -76.793
558.781;  339.721;  194.885;  499.208
559.061;  182.604; -232.118; -227.788
559.340;  273.708;  302.883;  353.211
559.619;  503.712;   93.884;  148.210
559.899;  656.209; -239.117; -266.789
560.178;  535.124; -778.115; -593.793
560.457; 1960.211; -623.117; -562.790
560.736; 2485.851; -472.111; -482.800
561.015; 1734.233; -500.128; -502.769
561.295;  290.874;  180.893;  215.193
561.574;  252.622;  119.885;  116.207
561.853;  313.562;  274.891;  303.197
562.132;  338.626;  -45.114;  182.206
562.411;  352.678;  396.879;  553.219
562.690;   27.421; -592.115; -458.792
562.969;  222.139;  472.888;  630.203
563.248;  860.377; 2966.878; 2487.219
563.527;  153.450; -290.111; -408.800
563.806;  173.340; -650.127; -521.771
564.085;  247.786; -297.105; -206.810
564.364;   81.012; -594.117; -405.790
564.643;  305.879; -276.121; -223.781
564.922; 1080.958;  221.890;  397.198
565.201;  840.161; -640.109; -700.803
565.479;  393.220; -297.115; -219.792
565.758;   57.835; -810.128; -712.770
566.037;  247.462; -155.109; -100.803
566.316;  144.316; -286.116;  -28.791
566.595;   52.522;  -17.115;  -12.793
566.873;  172.352; -166.111;  -79.801
567.152;  -67.161; -490.113; -590.797
567.431;   23.513; -113.116;    6.210
567.709;   10.875; -344.107; -212.807
567.988;   77.528; -810.114; -769.794
568.266;  272.622; -160.115;  -68.793
568.545;  198.122; -644.100; -514.819
568.824;  560.719;  160.885;  356.208
569.102;  312.028; -351.114; -235.794
569.381;  111.918; -492.116; -407.792
569.659; -130.864; -553.113; -553.796
569.938;  -67.125; -743.122; -465.780
570.216;   32.463; -225.109; -225.804
570.494; -114.369; -632.114; -572.795
570.773;   60.982;  202.879;  114.218
571.051;  -13.833; -373.123; -357.778
571.330;   10.834; -221.113; -174.796
571.608;   -7.964; -181.098; -173.823
571.886; -185.254; -671.111; -581.799
572.164; -189.317; -739.121; -621.782
572.443; -123.911; -562.105; -512.811
572.721;  -72.389; -399.117; -289.790
572.999; -108.794; -280.117; -168.788
573.277;  177.984;  379.894;  620.191
573.555;  184.986;   94.894;   37.190
573.834;  773.506;  -86.117; -114.788
574.112;  961.476;  880.893;  811.193
574.390;  292.551; -143.111;  -96.801
574.668;  -28.060;  -91.112;  -61.797
574.946;  -22.914; -165.106; -187.810
575.224;  -10.840;   71.891;  -16.803
575.502;  -59.686; -200.116; -204.791
575.780; -186.260; -767.112; -829.798
576.058;  483.751; 1589.889; 1004.200
576.336;  -22.545; -210.110; -129.801
576.614; -134.859; -511.112; -340.798
576.891; -107.775; -711.115; -823.794
577.169;  270.870; -158.108; -285.805
577.447;  380.776;  169.893;  202.193
577.725;  330.344;  629.888;  854.201
578.003;  -11.558;  -71.112; -371.798
578.280;   37.796; -208.104; -242.812
578.558;  -65.376; -450.115; -422.793
578.836;   47.931; -210.114; -145.795
579.114;  -92.761; -630.112; -670.797
579.391;   46.507;   -6.117;  -18.789
579.669; -197.574; -595.114; -704.794
579.947;   75.974; -326.107; -127.806
580.224;   42.673; -692.107; -524.806
580.502;  219.477;  127.893;   76.193
580.779;    7.112;  -42.117;   75.210
581.057; -167.536; -584.109; -470.804
581.334; -216.993; -726.102; -695.815
581.612;   94.686;   54.895;  511.190
581.889;  -36.882;  -83.101; -129.818
582.167;  -80.672; -298.099; -190.821
582.444; -232.887; -845.102; -814.817
582.721;  209.114;  657.899;  715.183
582.999;  -20.473; -326.100; -167.821
583.276;  137.370; -812.123; -713.779
583.553;  327.810; -364.102; -294.816
583.831;   23.393; -607.104; -631.812
584.108;   74.568;  349.892;  174.195
584.385;  -22.693; -122.102;  -98.815
584.662; -191.948; -651.111; -828.801
584.940;   68.152;  204.889;  204.199
585.217;  -63.964;  -73.113; -303.796
585.494;   28.959;   71.890;  118.198
585.771;   78.664; -250.109; -354.804
586.048;  248.935; -196.113;  -76.796
586.325;   22.654; -721.110; -773.801
586.602;  107.496;  230.896;  213.188
586.879; -122.176; -499.100; -580.820
587.156;   11.487; -156.105; -331.810
587.433; -132.888; -701.102; -667.817
587.710;   63.141;  152.888;  234.202
587.987;  123.391; -264.105; -236.811
588.264;  477.742;  315.888;  387.202
588.541;  772.398;  -61.104;   26.187
588.818; 1486.866;   72.892;  171.196
589.095; 1190.995; -163.104; -174.812
589.371;  145.263; -459.109; -414.804
589.648;  -66.924; -581.107; -437.807
589.925;  -44.469; -517.114; -621.795
590.202; -117.759; -741.112; -607.798
590.478;   23.992; -166.105;  -73.811
590.755;  127.871; -241.108; -132.806
591.032; 1470.856; -741.110; -699.802
591.308; 1821.667; -732.094; -790.831
591.585; 1024.555; -573.110; -560.802
591.862; -108.887;-1056.102; -950.817
592.138;  -24.831; -475.108; -474.805
592.415;   -5.503; -486.104; -495.813
592.691; 1075.495;  460.896;  518.188
592.968; 1091.638; -208.098; -123.824
593.244;  421.413; -695.116; -595.790
593.521;    7.013; -105.102;  -42.817
593.797; -167.427; -810.122; -720.780
594.074;   49.547; -611.096; -588.826
594.350;  500.856;  828.905;  729.172
594.626;  106.552; -303.111; -283.801
594.903;  -37.386; -643.101; -645.817
595.179;  184.200;  243.896;  418.187
595.455;   -8.423; -136.107; -150.807
595.731;  -10.599;  -19.103;  -38.814
596.008; -103.352; -464.111; -434.800
596.284;  -34.574; -187.100; -242.820
596.560;  -73.128; -501.093; -493.833
596.836;   42.889; -173.105;  -70.810
597.112;   95.469; -582.108; -437.805
597.388;  118.846;  -49.097;  -48.826
597.665;  153.938;  437.887;  530.203
597.941; -160.306; -572.089; -658.839
598.217;  -26.942; -323.110; -293.802
598.493;  123.466;   61.891; -204.804
598.769;  269.321; -175.100;  -50.819
599.045;   82.972; -490.108; -562.806
599.321;   21.525; -193.100; -261.820
599.597;    0.465; -355.109; -476.804
599.872;  376.998;  409.896;  429.187
600.148;  234.447;  -61.097; -172.826
600.424;  234.275;   91.893;  202.193
600.700;  118.277; -170.107; -280.807
600.976;   -7.958; -442.097; -464.825
601.252;  108.362; -226.109; -272.803
601.527;  -43.501; -833.104; -840.813
601.803;    2.393; -453.105; -404.812
602.079;  104.421; -124.100; -118.819
602.354;  228.479; -620.092; -531.835
602.630;  457.236; -140.113; -482.796
602.906; 1323.818; -910.101; -863.818
603.181; 3620.298; -627.119; -534.786
603.457; 3133.845;   98.903; -278.826
603.733;  393.085; -605.120; -626.783
604.008;  629.886; -245.106; -164.810
604.284; 1602.215; -636.101; -580.817
604.559; 1503.644;   -3.112;  -42.799
604.835;  236.388; -163.105; -225.810
605.110;   79.729; -732.099; -892.821
605.385;  451.774;  224.907;  267.167
605.661;  271.058; -625.095; -729.829
605.936;  477.272; -664.108; -737.806
606.211;  537.906;  -17.103; -170.815
606.487;   77.827; -329.114; -376.794
606.762; -115.802; -791.119; -745.786
607.037; -106.311; -501.105; -433.810
607.313; -149.647; -589.096; -574.828
607.588;  -32.914; -375.106; -137.810
607.863;   30.417;  -28.101; -143.818
608.138;  200.457;  513.890;  516.198
608.413;  -71.668; -576.099; -592.822
608.688;  -51.831; -203.108; -267.805
608.964;   39.981; -509.106; -218.809
609.239;  110.486; -107.105; -212.810
609.514;  217.693;  281.895;  240.188
609.789;  248.496; -187.104; -716.812
610.064;  410.352; -435.096; -609.827
610.339;  378.063; -855.109; -799.804
610.614;  623.325; -131.100; -315.820
610.889;  398.193;  215.895;  107.188
611.163; -100.307; -407.104; -591.812
611.438;    1.428;   81.886; -167.794
611.713;  -84.785; -467.101; -499.817
611.988;  -12.884; -144.101; -328.818
612.263; -180.393; -771.102; -717.815
612.538;  219.335;  385.887;  251.204
612.812;  -73.374; -832.100; -911.820
613.087;   39.136; -358.098; -338.823
613.362; -152.823; -497.107; -557.807
613.637;   88.903;  261.897;  138.186
613.911;  -47.620; -256.092; -345.835
614.186;   29.276; -249.107; -292.807
614.460;  241.352; -842.081; -758.854
614.735;  422.812;  -55.087;  -17.843
615.010;   67.805;   43.912;  -82.841
615.284;  248.669;  360.892;  246.195
615.559;   43.979; -792.092; -955.835
615.833;  166.030;  -76.099;  -87.822
616.108;  -56.512; -225.090; -390.837
616.382;  138.614;  274.913;  402.156
616.656;   28.888; -241.090; -232.837
616.931;  156.631; -785.099; -700.822
617.205;  413.799; -973.104; -979.813
617.480;  537.555;  -91.125;    6.225
617.754;   -5.747; -396.125; -128.774
618.028;  -47.270; -369.129; -382.768
618.302;   41.268;   73.892;  -25.805
618.577; -143.696; -371.103; -518.815
618.851; -131.740; -399.109; -600.803
619.125;  -98.604; -335.134; -378.759
619.399;  -84.401; -244.104; -374.813
619.673;  -95.481; -330.115; -515.792
619.947; -130.270; -333.114; -448.795
620.222;  -59.647; -198.110; -204.801
620.496;  -38.817;  -47.121;  -96.782
620.770;  -21.423; -187.122;  -93.781
621.044;  147.987;  323.895;  346.190
621.318;  342.885; -653.120; -614.783
621.592;  290.084; -430.121; -409.783
621.866;   97.345; -476.112; -572.799
622.140;  -54.986; -207.116; -356.791
622.413;   73.648;  138.889;  112.200
622.687; -165.585; -746.101; -492.817
622.961;  -13.932; -130.108; -143.805
623.235; -176.752; -633.111; -661.800
623.509; -199.008; -816.105; -848.811
623.783;   18.374;  -12.107;   48.193
624.056;  -47.514; -254.120; -280.783
624.330;   54.140;   63.888;   -3.797
624.604;  -26.288; -271.116; -355.790
624.877;   34.956;  180.890;   26.198
625.151;  -36.674; -249.114; -238.794
625.425;  -53.299; -150.103; -283.814
625.698; -132.107; -367.119; -374.785
625.972; -201.442; -799.110; -765.802
626.245;  163.613;  685.884;  484.210
626.519; -108.811; -426.120; -340.784
626.792;  -52.823; -192.107; -380.807
627.066; -154.129; -485.122; -662.779
627.339; -190.445; -736.110; -663.802
627.613;   65.388;  351.880;  148.216
627.886;   78.060;  187.891; -612.803
628.160;  -47.615;  312.880; -161.783
628.433; -163.943; -695.125; -703.775
628.706; -190.711; -517.120; -615.784
628.979;   41.362;  296.876;  117.223
629.253; -239.303; -785.119; -833.786
629.526;  156.745; -334.126; -253.772
629.799;   34.167; -641.123; -479.778
630.072;  -20.369; -497.128; -516.769
630.346; -294.687;-1115.116;-1080.790
630.619;  185.078; -467.107; -545.808
630.892;  437.349;  709.889;  593.200
631.165;  345.899;  790.896;  679.187
631.438; -242.758;-1092.112;-1055.798
631.711;  111.370;  453.877;  257.221
631.984; -144.890; -523.117; -624.789
632.257; -173.393; -636.117; -681.789
632.530;  -99.606; -412.119; -433.785
632.803;   44.625; -109.115;    7.207
633.076; -151.635; -360.123; -422.777
633.349;   34.834;  173.872;  121.231
633.622;  -80.207; -187.119; -240.785
633.895; -263.714; -903.120; -823.783
634.167; -151.653; -496.126; -525.773
634.440;  -21.282;  -19.116; -137.792
634.713;  -32.204;  -22.119; -120.786
634.986;  174.727;  593.871;  453.233
635.258; -187.277; -507.115; -597.793
635.531;  201.904;  742.882; -343.788
635.804; -110.891; -303.117; -318.789
636.077; -215.185; -830.116; -852.791
636.349; -150.778; -586.115; -474.793
636.622;  550.144; 1695.874; 1392.228
636.894;   13.290; -474.120; -909.784
637.167;  -62.560; -836.127; -789.771
637.439;  -29.963; -278.128; -213.770
637.712;  -92.954; -312.126; -293.772
637.984; -210.184; -635.116; -707.791
638.257;  356.365;  515.877;  488.222
638.529;  132.458; -881.125; -924.776
638.802;  -12.769; -508.128; -449.769
639.074; -283.124; -927.122; -952.781
639.346; -268.810; -942.135; -930.757
639.619;  -43.061;  -79.142; -319.744
639.891;  -17.529;  -83.122; -168.779
640.163; -172.827; -689.122; -756.780
640.435;   33.474;  273.878;  103.220
640.708;   15.576;  -72.122; -132.780
640.980; -110.023; -366.122; -362.781
641.252;  124.678;  -25.121;  -71.781
641.524; 1073.080;  580.879;  573.219
641.796;  742.981;-1094.121; -907.782
642.068;  139.683; -191.121; -300.782
642.340; -142.216; -486.121; -566.783
642.613;   76.285;  294.880;  323.217
642.885; -210.013; -787.120; -878.783
643.157; -162.512; -810.120; -658.784
643.428;   72.990;  170.880;  218.216
643.700; -116.209; -498.120; -425.784
643.972;  -44.408;  -16.119; -133.785
644.244; -143.106; -474.119; -559.785
644.516;  -65.905; -250.119; -114.786
644.788;  119.697;  662.881;  548.214
645.060;  -35.402;  -12.119; -124.786
645.332; -177.600; -525.118; -535.787
645.603;   69.101;  479.882;  342.213
645.875; -119.398; -334.118; -369.787
646.147;  328.204; 1487.882; 1242.212
646.418; -224.595; -931.117; -918.788
646.690;  -27.593; -714.117; -715.789
646.962;  -53.392; -413.117; -451.789
647.233;    1.909;   15.883;   11.211
647.505; -129.889; -595.117; -475.790
647.776;   57.112;  328.884;  229.210
648.048;  -45.386; -248.116; -418.790
648.320; -181.585; -752.116; -679.791
648.591; -277.684;-1055.116; -958.791
648.862; -132.182; -505.116; -577.792
649.134;   53.119;  115.885;  198.208
649.405; -167.179; -661.115; -618.792
649.677; -150.578; -475.115; -598.793
649.948;  -57.977; -181.115; -296.793
650.219;  -25.675;  -37.115; -147.793
650.491; -128.774; -431.114; -520.794
650.762; -177.272; -705.114; -731.794
651.033; -153.171; -437.114; -424.795
651.304; -190.870; -743.114; -728.795
651.576; -197.468; -680.114; -645.795
651.847;  -59.767; -250.113; -140.796
652.118;  -19.865;  -32.113; -189.796
652.389; -173.464; -639.113; -722.796
652.660;  -50.663; -147.113;  -89.797
652.931; -265.961; -897.112; -871.797
653.202; -165.160; -382.112; -541.798
653.473; -143.258; -633.112; -533.798
653.744;  -13.357; -595.112; -590.798
654.015;   20.945; -356.112; -303.799
654.286; -143.554; -642.111; -663.799
654.557; -121.953; -586.111; -521.799
654.828; -304.651;-1114.111;-1088.800
655.099;  -92.850; -404.111; -291.800
655.370; -154.948; -427.111; -543.801
655.641; -199.347; -656.110; -714.801
655.911; -186.346; -618.110; -638.801
656.182;  131.356;  437.890;  387.198
656.453;  216.357;  830.890;  746.198
656.724; -135.841; -466.110; -426.802
656.994; -127.940; -553.109; -568.803
657.265; -228.239; -862.109; -873.803
657.536; -144.837; -500.109; -377.804
657.806; -150.336; -561.109; -593.804
658.077; -254.834; -866.109; -950.804
658.347; -154.533; -523.108; -598.805
658.618; -218.132; -646.108; -694.805
658.888;    5.970;  -41.108;  112.195
659.159; -161.729; -432.108; -548.806
659.429;  -72.527; -292.108; -349.806
659.700;  -80.626; -435.107; -390.807
659.970;  -84.025; -370.107; -359.807
660.241; -183.323; -754.107; -921.807
660.511;  265.278; -147.107; -174.808
660.781; -126.420; -793.106; -748.808
661.052;  -82.219; -222.106; -381.808
661.322;  -43.617;   21.894;   -9.809
661.592;   96.384;  257.894;  148.191
661.862; -154.315; -369.106; -382.810
662.133; -139.413; -551.105; -502.810
662.403; -239.712; -770.105; -676.810
662.673;  -83.810; -256.105; -213.811
662.943; -184.509; -612.105; -551.811
663.213;  -20.508;  -85.105;  -81.811
663.483; -164.606; -593.104; -568.812
663.753;  -80.905; -194.104; -152.812
664.023;  -19.603;   68.896;  -32.813
664.293;  -85.802; -319.104; -126.813
664.563; -217.401; -694.104; -648.813
664.833; -201.299; -743.103; -608.814
665.103; -249.598; -730.103; -793.814
665.373; -217.896; -766.103; -806.814
665.643; -252.395; -863.103; -918.815
665.913;  -92.394; -534.103; -714.815
666.182;  -47.992; -685.102; -719.816
666.452;   94.009;  -22.102;  -89.816
666.722; -167.989; -724.102; -784.816
666.992; -275.188; -948.102; -921.817
667.261; -253.687; -824.102; -808.817
667.531;  130.115;  134.899;   45.183
667.801;  142.916; -440.101; -412.818
668.070;  245.718;  714.899;  697.182
668.340; -242.081; -883.101; -840.819
668.609;  161.220;  588.900;  301.181
668.879; -142.678; -490.100; -558.819
669.149; -151.477; -539.100; -516.820
669.418; -225.175; -698.100; -726.820
669.688; -131.674; -482.100; -666.820
669.957; -101.872; -423.099; -546.821
670.226;  -60.871; -268.099; -331.821
670.496; -167.270; -431.099; -635.822
670.765; -128.368; -418.099; -501.822
671.034; -264.567; -872.099; -828.822
671.304;   12.835;   55.902; -111.823
671.573; -287.264;-1085.098; -957.823
671.842;  -32.063; -380.098; -294.823
672.112; -107.661; -692.098; -586.824
672.381;  -21.660; -239.098; -214.824
672.650; -288.758;-1005.097;-1021.825
672.919; -165.657; -631.097; -507.825
673.188; -188.856; -681.097; -878.825
673.457; -305.554;-1101.097;-1143.826
673.726; -172.853; -579.096; -646.826
673.995; -126.451; -533.096; -479.826
674.265;  -81.150; -263.096; -333.827
674.534;  -50.149; -183.096; -235.827
674.802; -123.547; -618.096; -703.828
675.071;  389.154; -886.095; -801.828
675.340; 1876.456; -464.095; -339.828
675.609;  760.557;  103.905;   82.171
675.878; -155.342; -949.095; -893.829
676.147;    5.460;  -26.095;   -8.829
676.416;    7.461; -210.094; -294.830
676.685;  674.463; 1000.906; -622.830
676.953;  -29.636; -603.094; -452.831
677.222;  -87.734; -193.094; -273.831
677.491;  -60.233;  -24.094; -127.831
677.759;  -21.532;   11.907;  172.168
678.028;  -92.430; -279.093; -222.832
678.297;   31.971;   71.907;  197.168
678.565; -288.227; -898.093; -944.833
678.834;  -74.626; -311.093; -268.833
679.102; -151.125; -411.092; -391.834
679.371; -267.423; -898.092; -727.834
679.639; -249.322; -797.092; -786.834
679.908; -227.420; -794.092; -724.835
680.176; -304.519; -895.091; -941.835
680.445; -111.318; -346.091; -352.835
680.713;   -4.216;  -58.091;  -23.836
680.982; -171.715; -523.091; -525.836
681.250; -179.513; -578.091; -507.837
681.518; -175.112; -534.090; -751.837
681.787;  -70.011; -204.090; -167.837
682.055; -115.809; -490.090; -422.838
682.323; -305.608; -993.090; -992.838
682.591;  -54.606; -216.090; -538.838
682.859;   -1.405;    9.911;  -35.839
683.128;   33.596;  232.911;  497.161
683.396; -338.202;-1102.089;-1122.840
683.664;  -16.701; -241.089;   21.160
683.932;   12.801;  144.911;  -76.840
684.200; -147.198; -576.088; -320.841
684.468;  -44.197;  -73.088; -124.841
684.736;  -53.595; -214.088; -175.841
685.004; -292.794;-1024.088; -982.842
685.272; -170.792; -880.088; -774.842
685.540; -181.791; -499.087; -557.843
685.808; -184.489; -651.087; -682.843
686.076; -258.388; -894.087; -969.843
686.343; -150.587; -601.087; -815.844
686.611;   -0.885; -195.087; -224.844
686.879;  203.616; -530.086; -553.844
687.147; 1795.918; -483.086; -480.845
687.414;  490.719;  -12.086; -169.845
687.682; -143.580; -658.086; -757.846
687.950;  216.522;  259.915;  263.154
688.217; -152.177; -792.085; -760.846
688.485; -117.375; -632.085; -636.847
688.753;  254.326;  -11.085; -102.847
689.020; -101.573; -820.085; -851.847
689.288; -238.071; -853.084; -787.848
689.555;  -19.870; -195.084; -148.848
689.823;  -67.468; -241.084; -345.849
690.090; -151.167; -546.084; -651.849
690.358; -274.366; -877.084; -897.849
690.625;   12.836;  120.917;   45.150
690.892; -137.863; -403.083; -369.850
691.160;   -9.161;   72.917;  -35.850
691.427;   -4.060;  141.917;  130.149
691.694; -239.659; -855.083; -929.851
691.962; -306.257;-1177.082;-1060.852
692.229;   15.444;  127.918;   56.148
692.496;   49.146;  130.918;  -49.852
692.763;  -39.353; -164.082; -201.853
693.031; -184.951; -739.082; -716.853
693.298; -151.550; -509.081; -368.853
693.565;  149.351; -155.081; -163.854
693.832;  632.453;   -5.081;   -9.854
694.099;  -72.746; -643.081; -642.855
694.366; -233.144; -882.081; -896.855
694.633; -212.843; -920.080; -633.855
694.900; 1337.458; 4367.920; -114.856
695.167;  198.260; -214.080; -380.856
695.434;  -55.739; -646.080; -623.856
695.701;  149.663;  121.921;  -61.857
695.968;  206.164; -365.079; -361.857
696.234;  608.865; -415.079; -646.858
696.501; 6807.967; -776.079; -614.858
696.768; 3192.668; -554.079; -617.858
697.035;   91.070; -632.078; -667.859
697.302;  -65.729; -448.078; -552.859
697.568;  -86.728; -458.078; -497.859
697.835; -167.726; -683.078; -624.860
698.102;  -96.625; -498.078; -407.860
698.368;  117.777;  384.923;  396.139
698.635;  -87.822;  -47.077; -424.861
698.901; -101.021; -240.077; -348.861
699.168;  -33.619; -534.077; -456.862
699.435;  -10.118;  -72.077;  -13.862
699.701; -279.516; -868.076; -764.862
699.968; -127.815;  144.924; -441.863
700.234; -197.613; -783.076; -822.863
700.500; -144.912; -448.076; -539.864
700.767;   15.889;   -1.075;   26.136
701.033; -292.609;-1015.075; -963.864
701.299;  -85.008; -450.075; -483.865
701.566;  196.194;  950.925;  763.135
701.832;   42.595;  -31.075;  -76.865
702.098; -261.804;-1054.074;-1034.866
702.365; -229.802;-1098.074;-1030.866
702.631; -237.501;-1038.074;-1063.867
702.897;  659.901; -765.074; -676.867
703.163; 1207.502;  348.926;  254.133
703.429;   26.503; -256.073; -273.868
703.695; -197.395; -796.073; -792.868
703.961;  -22.794; -214.073; -210.868
704.227; -172.292; -630.073; -725.869
704.493;  228.609;  613.927;  510.131
704.759; -143.790; -565.072; -540.870
705.025;    3.912; -203.072; -194.870
705.291; -121.087; -666.072; -562.870
705.557;  296.815;  719.928;   34.129
705.823; -105.184; -742.072; -694.871
706.089;   32.817; -307.071; -326.871
706.355;  187.019; -315.071; -244.872
706.620; 3630.620; -776.071; -729.872
706.886; 4730.622; -309.071; -362.873
707.152;  277.223; -818.070; -973.873
707.418; -277.276;-1153.070;-1186.873
707.683; -112.874; -550.070; -530.874
707.949; -124.573; -547.070; -578.874
708.215;  -35.071; -129.070; -207.874
708.480;  -91.270; -520.069; -420.875
708.746;   80.032;   68.931;   28.125
709.011; -157.467; -578.069; -612.876
709.277; -178.666; -538.069; -543.876
709.542; -111.464; -428.069; -387.876
709.808;  -18.363;  -59.068;   89.123
710.073; -213.761; -577.068; -695.877
710.339;  -65.460; -242.068; -228.877
710.604; -140.959; -780.068; -845.878
710.869;  130.943; -277.068; -366.878
711.135; -205.056; -715.067; -628.879
711.400; -162.254; -507.067; -608.879
711.665; -135.453; -404.067; -479.879
711.931; -174.352; -661.067; -677.880
712.196; -247.950; -876.067; -954.880
712.461;  -29.249; -402.066; -490.880
712.726; -116.347; -727.066; -771.881
712.991; -197.246; -647.066; -664.881
713.256; -101.845; -350.066; -332.882
713.521; -133.743; -417.065; -381.882
713.787; -153.742; -454.065; -472.882
714.052;  -62.440; -214.065; -400.883
714.317; -269.339;-1045.065; -981.883
714.581;  524.762; -374.065; -268.883
714.846;  537.864; -822.064; -888.884
715.111;  125.165;  261.936;  257.116
715.376;  -87.633;  -86.064; -223.885
715.641;  -86.132; -365.064; -367.885
715.906;   34.970;   15.936; -551.885
716.171;  130.571;  221.937;  209.114
716.436;   15.472;  -78.063; -104.886
716.700; -198.326; -818.063; -692.886
716.965; -227.925; -794.063; -807.887
717.230; -126.323; -339.063; -392.887
717.494;  -57.522;  -40.062; -134.888
717.759; -202.121; -784.062; -640.888
718.024;   40.181;  269.938;  250.112
718.288;  183.982;  685.938;  395.111
718.553; -285.916; -803.062; -977.889
718.817; -264.315; -883.061; -899.889
719.082;  -52.314; -115.061; -125.890
719.346; -265.412;-1000.061; -947.890
719.611;  -82.211; -300.061; -255.891
719.875; -148.009; -568.060; -537.891
720.140; -144.508; -453.060; -603.891
720.404;  -28.907; -136.060; -249.892
720.668;  413.795; -475.060; -411.892
720.933;  186.496;  146.940;  137.108
721.197; -220.502; -667.059; -600.893
721.461; -260.401; -851.059; -826.893
721.725;   -3.300;  -21.059; -250.894
721.990;  -78.598; -284.059; -204.894
722.254;  -32.097;  -26.059; -108.894
722.518; -112.695; -286.058; -442.895
722.782; -215.594; -743.058; -594.895
723.046;  196.407;  614.942;  570.105
723.310;   70.509;  374.942;  210.104
723.574; -166.190; -654.058; -614.896
723.838; -209.788; -576.057; -642.897
724.102;  -51.687; -226.057; -239.897
724.366; -269.085;-1032.057; -978.897
724.630; -164.084; -749.057; -571.898
724.894; -176.783; -722.057; -514.898
725.158;  -15.081;   38.944; -295.898
725.422;  -98.380; -394.056; -327.899
725.685; -134.078; -441.056; -349.899
725.949; -169.777; -566.056; -519.900
726.213; -195.076; -732.056; -811.900
726.477; -115.274;-1020.055; -933.900
726.740;   74.627; -274.055; -104.901
727.004;   88.929; -384.055; -510.901
727.268; 1733.030; -442.055; -400.901
727.531;  302.131; -961.055; -775.902
727.795; -146.467; -713.054; -673.902
728.059; -161.566; -552.054; -557.903
728.322; -177.564; -841.054; -669.903
728.586; -127.863; -692.054; -701.903
728.849; -179.462; -695.053; -756.904
729.112; -221.860; -812.053; -912.904
729.376; -248.759; -959.053; -905.904
729.639; -148.857; -536.053; -536.905
729.903; -216.356; -733.053; -699.905
730.166;  -84.155; -437.052; -399.906
730.429;  -71.653; -317.052; -468.906
730.693; -182.552; -355.052; -894.906
730.956;  310.650;  810.948;  651.093
731.219;  371.251; -310.052; -103.907
731.482; -113.247;-1003.051; -894.907
731.745; -128.746; -794.051; -935.908
732.009;   13.155;  -30.051;   50.092
732.272; -188.643; -904.051; -771.909
732.535;  -84.942; -300.051; -310.909
732.798; -318.640;-1083.050;-1166.909
733.061; -122.839; -430.050; -456.910
733.324;  -11.938;   31.950; -180.910
733.587;  120.864;  290.950;  365.090
733.850; -185.235; -973.049;-1050.911
734.113;   33.967;   33.951;   32.089
734.376;  -74.632; -328.049; -447.912
734.639;  333.969; 1188.951; 1011.088
734.901;  -29.729; -180.049; -402.912
735.164;  126.372; -883.048; -837.913
735.427;  662.174; -166.048; -355.913
735.690;   41.175; -205.048; -234.913
735.952; -202.424; -923.048; -925.914
736.215; -231.522;-1113.048;-1009.914
736.478; -142.621; -771.047; -774.915
736.740;  107.481;   33.953;  129.085
737.003;  296.482; -658.047; -672.915
737.266; 2335.783;  -94.047;   46.084
737.528;  122.985; -682.047; -660.916
737.791;  136.786; -316.046; -327.916
738.053;  556.388;  465.954;  649.083
738.316; 6868.889; -162.046; -136.917
738.578; 4372.590; -770.046; -736.918
738.841;  205.292; -382.046; -446.918
739.103;  -57.607; -875.045; -777.918
739.365;  305.795;   79.955;  -69.919
739.628; -164.404; -884.045; -805.919
739.890; -131.202; -758.045; -710.919
740.152; -175.301; -692.044; -754.920
740.414;  -98.100; -408.044; -359.920
740.677; -172.298; -785.044; -634.921
740.939; -143.897; -587.044; -487.921
741.201;    4.605; -432.044; -572.921
741.463;  -97.794; -689.043; -745.922
741.725;    5.607;  -21.043; -199.922
741.987;   74.209;  220.957;  116.078
742.249; -199.390; -751.043; -859.923
742.511;  -35.588; -703.043; -794.923
742.773; -123.587; -546.042; -546.924
743.035;  159.514;  796.958;  533.076
743.297; -228.884; -963.042;-1013.924
743.559;  364.217; -278.042; -262.925
743.821; -110.781; -735.042; -744.925
744.083;  -34.980;  -44.041; -149.925
744.345; -221.179; -869.041; -892.926
744.607;   76.823;   75.959;  122.074
744.868; -154.076; -490.041; -554.927
745.130; -250.074; -994.041;-1008.927
745.392;   23.727;   -1.040;  -44.927
745.653;  -69.072; -411.040; -378.928
745.915;  238.930;  896.960;  631.072
746.177;   35.431;   35.960;  -43.928
746.438; -150.067; -428.040; -543.929
746.700; -190.866; -947.039; -988.929
746.961; -145.064; -659.039; -740.930
747.223;   67.637; -190.039;  -74.930
747.484;  -51.262; -391.039; -471.930
747.746;   39.340;  -23.038; -106.931
748.007;  -75.559; -647.038; -689.931
748.269;   99.143; -468.038; -440.931
748.530;   99.844; -852.038; -638.932
748.791;   66.045; -354.038; -420.932
749.053;  293.747;  286.963;  163.067
749.314;  245.148; -236.037; -169.933
749.575;   85.950; -945.037; -905.933
749.836;  475.651; -217.037;   86.066
750.098; 1560.052;  -60.037;  -21.934
750.359;20684.754;  414.964;  555.066
750.620; 4864.555; -121.036; -220.935
750.881;  491.657; -585.036; -513.935
751.142;  695.158; -950.036; -938.936
751.403;10526.559; -789.036; -705.936
751.664; 4069.261;-1034.035; -999.936
751.925;  289.662; -175.035; -262.937
752.186;  151.864; -298.035; -278.937
752.447;    5.765; -590.035; -445.937
752.708;  -83.834; -532.035; -648.938
752.969;  -85.732; -566.034; -576.938
753.230; -165.531; -777.034; -672.939
753.491; -152.029; -650.034; -631.939
753.751;   25.872;  109.966;   19.061
754.012;  125.173;  258.967;  181.060
754.273;   -8.625; -174.033;  -71.940
754.534;  -72.224; -487.033; -580.940
754.794; -241.122; -926.033; -911.941
755.055;  276.679; 1051.967;  881.059
755.316; -153.819; -700.032; -566.942
755.576; -109.518; -606.032; -576.942
755.837; -142.417; -527.032; -695.942
756.097; -124.815; -530.032; -564.943
756.358; -202.214; -725.032; -770.943
756.618; -159.212; -705.031; -641.943
756.879;  -28.311; -254.031; -349.944
757.139; -268.010;-1098.031;-1116.944
757.400; -163.508; -538.031; -553.945
757.660;  -48.707; -365.031; -401.945
757.920;  -84.405; -266.030; -228.945
758.181;  -92.504; -468.030; -351.946
758.441; -227.203; -870.030; -809.946
758.701;  -81.601; -308.030; -215.946
758.961;  -85.800; -220.030; -278.947
759.222;  -79.998; -574.029; -502.947
759.482; -180.697; -683.029; -723.948
759.742; -186.496; -706.029; -547.948
760.002;    4.506;  -83.029; -143.948
760.262;   19.107;   50.972;  182.051
760.522; -114.191; -498.028; -574.949
760.782; -146.090; -738.028; -612.949
761.042; -109.889; -618.028; -573.950
761.302;   37.013;   55.972;  -18.950
761.562;   51.614; -164.027; -154.951
761.822;  -17.384; -710.027; -551.951
762.082; -222.783;-1104.027;-1093.951
762.342;   45.419; -328.027; -403.952
762.601;   23.620; -567.027; -506.952
762.861;  263.821; -281.026; -207.952
763.121;  468.823; -406.026; -411.953
763.381; 8903.424; -499.026; -485.953
763.640; 8528.326; -139.026; -307.954
763.900;  387.027; -242.026; -203.954
764.160;   76.428; -458.025; -491.954
764.419; -102.970; -726.025; -782.955
764.679; -178.169; -795.025; -726.955
764.939;   -6.767; -124.025; -210.955
765.198; -160.966; -608.025; -563.956
765.458; -148.065; -710.024; -612.956
765.717; -169.963; -454.024; -590.957
765.976; -103.562; -428.024; -411.957
766.236; -141.360; -475.024; -610.957
766.495;   59.441;  260.977;   73.042
766.755; -264.658;-1090.023; -987.958
767.014; -127.356; -594.023; -665.958
767.273; -121.555; -373.023; -397.959
767.533;  -50.853; -228.023; -307.959
767.792;  -59.452; -151.022; -188.960
768.051;  -60.751; -228.022; -276.960
768.310; -139.849; -546.022; -650.960
768.569;  -12.548; -161.022;    4.039
768.828;  -72.646; -285.022; -363.961
769.088; -251.745;-1050.021; -942.961
769.347; -187.743; -755.021; -599.962
769.606; -221.542; -876.021; -857.962
769.865; -260.841;-1016.021;-1033.963
770.124;  -33.839; -411.021; -336.963
770.383; -201.438; -778.020; -910.963
770.641;  -98.936; -398.020; -400.964
770.900; -230.635; -953.020; -846.964
771.159; -188.434; -851.020; -951.964
771.418; -162.032; -917.020; -779.965
771.677;  109.069; -224.019; -293.965
771.936;  -34.929; -794.019; -865.966
772.194; 1730.672; -465.019; -437.966
772.453; 7606.873; -213.019; -391.966
772.712;  624.275;  416.982;  329.033
772.970;  116.376;   32.982;   63.033
773.229;   69.878;  -22.018;  102.033
773.488; -205.321; -814.018; -770.968
773.746;  116.280;  296.982;  335.032
774.005;   47.782;  190.983;  -22.969
774.263;   30.583;  243.983;  177.031
774.522; -173.315; -422.017; -548.969
774.780; -136.214; -484.017; -417.970
775.039; -141.013; -551.017; -531.970
775.297;  -22.811; -135.016; -351.970
775.555; -175.510; -489.016; -612.971
775.814; -224.208; -618.016; -570.971
776.072; -228.307; -749.016; -740.971
776.330; -171.206; -630.016; -520.972
776.589; -205.404; -703.015; -721.972
776.847; -216.303; -645.015; -624.973
777.105; -313.501;-1016.015;-1032.973
777.363; -130.400; -459.015; -454.973
777.621; -208.498; -660.015; -717.974
777.879;  -50.197;  -42.014;   32.026
778.138; -169.396; -554.014; -717.974
778.396; -165.494; -585.014; -526.975
778.654; -326.693;-1015.014; -970.975
778.912; -119.491; -269.014; -371.976
779.170; -242.590; -880.013; -803.976
779.427; -253.789; -922.013; -897.976
779.685; -277.287; -880.013; -832.977
779.943; -180.986; -654.013; -593.977
780.201; -305.384; -964.012; -883.978
780.459; -162.083; -651.012; -610.978
780.717; -127.182; -440.012; -390.978
780.974; -142.580; -449.012; -490.979
781.232; -138.279; -358.012; -338.979
781.490; -155.877; -551.011; -472.979
781.747; -160.476; -555.011; -476.980
782.005;   90.825;  462.989;  254.020
782.263; -293.773; -542.011;-1004.981
782.520; -143.472; -326.011; -501.981
782.778; -317.870;-1013.010;-1051.981
783.035; -276.069; -962.010; -938.982
783.293;  -98.768; -248.010; -206.982
783.550;  -69.966; -134.010; -198.982
783.808; -237.765; -764.010; -776.983
784.065; -277.263; -745.009; -874.983
784.322;  -62.662;   25.991;  -86.984
784.580; -212.560; -915.009; -771.984
784.837; -138.259; -392.009; -466.984
785.094; -241.958; -783.009; -762.985
785.352; -131.956; -304.008; -404.985
785.609; -248.455; -934.008; -839.985
785.866; -146.753; -345.008; -401.986
786.123; -171.052; -639.008; -583.986
786.380; -181.151; -665.008; -604.987
786.637;  -70.449; -225.007; -380.987
786.895; -137.948; -456.007; -543.987
787.152;  -37.346; -135.007; -267.988
787.409;  -50.245; -123.007; -225.988
787.666; -132.544; -299.006; -378.988
787.923; -208.642; -616.006; -695.989
788.179; -162.041; -551.006; -584.989
788.436; -171.639; -585.006; -585.990
788.693;  -31.938;  -92.006;  -87.990
788.950;   64.163; -125.005; -112.990
789.207;   -0.535; -381.005; -372.991
789.464;  -65.834; -161.005; -301.991
789.720;   11.068;  150.995;  110.009
789.977; -313.231;-1003.005; -671.992
790.234;  -38.430;   44.996;  -66.992
790.490; -287.328; -884.004;-1031.993
790.747;  -13.927;  -85.004;   22.007
791.004; -121.125; -426.004; -348.993
791.260; -138.824; -430.004; -560.994
791.517; -210.323; -843.003; -788.994
791.773; -119.321; -379.003; -342.994
792.030; -203.620; -596.003; -660.995
792.286; -183.518; -686.003; -636.995
792.543;  -16.617;  -74.002; -159.995
792.799;  -59.215; -584.002; -382.996
793.055; -354.914;-1179.002;-1210.996
793.312; -183.613; -827.002; -816.997
793.568; -159.211; -746.002; -599.997
793.824;  -14.010; -226.001; -284.997
794.081;  -61.208; -447.001; -508.998
794.337;   17.493; -664.001; -561.998
794.593; 1380.494; -319.001; -271.999
794.849; 5803.896; -746.001; -772.999
795.105;  201.997; -270.000; -261.999
795.361;  -41.301; -490.000; -457.000
795.617; -205.000; -875.000; -945.000
795.873;  -81.600; -360.000; -407.000
796.129; -109.100; -368.000; -306.000
796.385;  -27.700; -124.000; -156.000
796.641;  122.400;  412.000;  550.000
796.897; -164.700; -666.000; -635.000
797.153;  116.900;  453.000;  357.000
797.409; -242.400; -785.000; -868.000
797.665; -184.100; -625.000; -732.000
797.921; -194.600; -775.000; -762.000
798.176; -154.400; -744.000; -747.000
798.432; -189.600; -824.000; -596.000
798.688; -251.700;-1174.000;-1078.000
798.943;   39.000; -165.000; -147.000
799.199; -168.100;-1005.000; -959.000
799.455;  261.900;  369.000;  316.000
799.710;  -43.100; -813.000; -380.000
799.966;  204.900; -162.000; -160.000
800.221;  193.200; -638.000; -721.000
800.477; 6702.100; -743.000; -710.000
800.732; 4962.800; -773.000; -800.000
800.988;  491.200;  205.000;  -19.000
801.243; 1904.800; -454.000; -344.000
801.498; 6839.000; -814.000; -739.000
801.754;  407.500; -289.000; -163.000
802.009;   81.500; -257.000; -335.000
802.264; -188.100; -967.000;-1033.000
802.520;   14.800;  222.000;   -3.000
802.775; -160.300; -524.000; -359.000
803.030;  133.400;  395.000;  356.000
803.285; -240.300; -840.000; -903.000
803.540; -138.700; -686.000; -699.000
803.795; -178.300; -648.000; -583.000
804.051;  -56.700; -279.000; -346.000
804.306;   60.800;  168.000;  128.000
804.561;  164.200;  451.000;  362.000
804.816;  268.200;  714.000;  861.000
805.071;   -7.200; -185.000; -280.000
805.325;   57.200; -257.000; -427.000
805.580; -233.800; -841.000; -877.000
805.835;  -68.800; -204.000; -297.000
806.090; -162.800; -760.000; -676.000
806.345;  -64.400; -344.000; -264.000
806.600;  -77.800; -549.000; -632.000
806.854;  -93.800; -408.000; -538.000
807.109;  -55.200; -493.000; -577.000
807.364;  -45.600; -407.000; -328.000
807.618;  -96.100; -415.000; -381.000
807.873;  -59.800; -470.000; -494.000
808.128;   71.100; -257.000; -518.000
808.382;   65.500; -224.000; -332.000
808.637;  -13.300; -440.000; -511.000
808.891;  133.200; -257.000; -180.000
809.146;  -53.200; -902.000; -794.000
809.400;   71.600; -848.000; -923.000
809.654;  204.000; -779.000; -551.000
809.909;  304.800; -841.000; -927.000
810.163; 5600.700; -813.000; -651.000
810.418;11876.200; -940.000; -861.000
810.672;  801.800; -685.000; -690.000
810.926;  649.100; -993.000; -973.000
811.180; 1578.800; -439.000; -372.000
811.434;37226.300;  240.000;  135.000
811.689;12463.800; -231.000; -365.000
811.943;  529.700; -936.000; -953.000
812.197;  290.800; -893.000; -671.000
812.451;  113.900; -379.000; -514.000
812.705;  -99.000; -809.000; -619.000
812.959;  -30.900; -263.000; -388.000
813.213;   -5.500; -283.000; -209.000
813.467;  109.900;  470.000;  253.000
813.721; -179.900; -764.000; -792.000
813.975; -215.500; -826.000; -877.000
814.229;  103.700;  430.000;  353.000
814.482; -127.200; -517.000; -566.000
814.736; -210.500; -766.000; -744.000
814.990; -234.000; -779.000; -872.000
815.244;  -67.000; -228.000; -285.000
815.497; -162.500; -636.000; -601.000
815.751;   -6.100; -141.000;   82.000
816.005; -159.100; -470.000; -586.000
816.258;  -86.600; -510.000; -363.000
816.512; -200.100; -693.000; -610.000
816.766;   12.200;  121.000;  157.000
817.019;   64.600;  148.000;  149.000
817.273; -232.700;-1000.000; -802.000
817.526;  -34.200; -206.000; -173.000
817.779; -227.900;-1049.000; -960.000
818.033; -203.000; -693.000; -807.000
818.286; -230.900; -725.000; -792.000
818.540; -192.000; -403.000; -403.000
818.793; -122.600; -402.000; -489.000
819.046; -166.400; -582.000; -520.000
819.299;  -44.200; -157.000; -166.000
819.553; -211.100; -552.000; -592.000
819.806; -274.000;-1016.000; -838.000
820.059;  -72.800; -334.000; -354.000
820.312;   37.800;  152.000;  185.000
820.565;   -6.600;  110.000;  -27.000
820.818;  -39.600;  -59.000; -173.000
821.071; -280.900;-1041.000; -957.000
821.324; -195.100; -536.000; -540.000
821.577; -164.000; -457.000; -483.000
821.830;  -73.100; -270.000; -172.000
822.083; -249.500; -733.000; -288.000
822.336;  -82.700; -261.000; -167.000
822.589; -262.100; -805.000; -688.000
822.842; -252.800; -875.000; -770.000
823.094; -351.900;-1076.000;-1114.000
823.347; -222.900; -925.000; -729.000
823.600;   36.000;  402.000;  187.000
823.853;  -86.900; -311.000; -267.000
824.105; -148.200; -331.000; -575.000
824.358; -213.800; -617.000; -716.000
824.611;   39.000;  234.000;   40.000
824.863; -128.200; -612.000; -591.000
825.116;    4.400;  -33.000;   27.000
825.368;   -6.200; -366.000; -372.000
825.621;   43.100; -186.000; -240.000
825.873;  -84.100; -704.000; -737.000
826.126;  284.100; -669.000; -641.000
826.378; 7285.000; -389.000; -505.000
826.630; 1220.200; -890.000; -898.000
826.883; -104.900; -754.000; -693.000
827.135;  -35.900; -279.000; -270.000
827.387; -256.600; -893.000; -839.000
827.639;  -31.300;  -86.000;   32.000
827.892; -216.100; -742.000; -582.000
828.144; -277.300; -848.000; -804.000
828.396;  -49.300;  104.000;  -80.000
828.648; -139.900; -440.000; -333.000
828.900; -235.800; -702.000; -795.000
829.152; -235.900; -684.000; -683.000
829.404;  -96.000; -215.000; -267.000
829.656;   39.400;  321.000;  214.000
829.908;   30.800;  393.000;  229.000
830.160; -322.200;-1064.000;-1047.000
830.412; -173.400; -481.000; -430.000
830.664; -197.300; -557.000; -665.000
830.916;  -96.000; -268.000; -206.000
831.167; -317.600;-1073.000; -951.000
831.419; -172.100; -623.000; -566.000
831.671; -288.000; -764.000; -809.000
831.923; -135.700; -311.000; -447.000
832.174; -113.200; -273.000; -331.000
832.426; -212.800; -493.000; -582.000
832.678; -356.800;-1043.000;-1091.000
832.929; -290.200; -947.000; -935.000
833.181; -187.300; -575.000; -677.000
833.432;  -49.400;  -59.000; -186.000
833.684;   -0.600;  112.000;  -27.000
833.935; -204.600; -610.000; -566.000
834.187; -203.500; -829.000; -823.000
834.438;  -50.300;  -58.000;  -25.000
834.689;  -99.900; -255.000; -123.000
834.941;  -59.900; -343.000; -244.000
835.192; -190.300; -590.000; -533.000
835.443; -126.100; -419.000; -506.000
835.695;  -31.500;  138.000;  -16.000
835.946; -136.800; -608.000; -378.000
836.197; -203.800; -599.000; -622.000
836.448; -159.200; -528.000; -395.000
836.699; -120.700; -253.000; -341.000
836.950;   27.800;   72.000;    7.000
837.201; -315.700;-1003.000; -987.000
837.452;  -91.500; -356.000; -170.000
837.703; -234.600; -791.000; -737.000
837.954; -100.400; -205.000; -365.000
838.205; -271.800;-1029.000;-1008.000
838.456;   46.400; -196.000; -282.000
838.707;  -69.400; -423.000; -519.000
838.958; -132.800; -634.000; -647.000
839.209;  193.700;   18.000;   40.000
839.460;   20.700; -439.000; -201.000
839.710;   53.600; -135.000; -297.000
839.961;  413.500;  730.000;  612.000
840.212;  149.600; -382.000; -497.000
840.462;  811.000; -328.000; -277.000
840.713;12903.900; -571.000; -536.000
840.964; 4322.000;  -62.000; -143.000
841.214;  259.100; -384.000; -624.000
841.465;  464.900; -214.000; -141.000
841.715;  380.000; -417.000; -380.000
841.966;  444.900; -746.000; -685.000
842.216; 8772.200; -330.000; -431.000
842.466;27671.400; -169.000; -313.000
842.717; 1128.200; -964.000; -952.000
842.967;  202.200; -635.000; -641.000
843.217;  201.900;   20.000;   28.000
843.468;   67.900; -104.000; -132.000
843.718; -182.600; -718.000; -726.000
843.968; -200.600; -837.000; -765.000
844.218;  -66.300; -315.000; -262.000
844.469; -143.000; -577.000; -561.000
844.719; -205.800; -537.000; -682.000
844.969; -165.300; -550.000; -580.000
845.219; -287.700; -814.000; -862.000
845.469;  -98.400; -392.000; -342.000
845.719; -240.600; -792.000; -884.000
845.969;    4.600;  119.000;  174.000
846.219; -208.700; -738.000; -720.000
846.469;   69.200;  464.000;  432.000
846.718;  -51.000; -115.000;   31.000
846.968; -272.400; -827.000; -827.000
847.218;  -73.100; -224.000; -371.000
847.468; -200.200; -586.000; -555.000
847.718; -284.200; -827.000; -798.000
847.967; -245.000; -826.000; -915.000
848.217; -129.400; -449.000; -569.000
848.467; -118.200; -405.000; -376.000
848.716; -213.800; -708.000; -725.000
848.966;  -76.500; -372.000; -358.000
849.215; -135.700; -428.000; -419.000
849.465; -184.900; -785.000; -615.000
849.714; -351.900;-1132.000;-1150.000
849.964; -138.400; -551.000; -613.000
850.213; -139.300; -393.000; -355.000
850.463;   94.400;  137.000;  340.000
850.712; -112.200; -542.000; -567.000
850.961; -106.000; -739.000; -678.000
851.211;  -41.800; -513.000; -504.000
851.460;  -23.100; -635.000; -650.000
851.709;  351.200;  -25.000;   18.000
851.958; 6883.600; -912.000; -750.000
852.208; 6924.500; -859.000; -879.000
852.457;  219.900; -181.000;  -13.000
852.706; -107.800; -791.000; -823.000
852.955;  -62.600; -507.000; -528.000
853.204; -139.900; -521.000; -461.000
853.453; -188.500; -418.000; -458.000
853.702; -258.700; -660.000; -750.000
853.951; -171.200; -532.000; -520.000
854.200; -211.900; -613.000; -562.000
854.449; -230.700; -695.000; -661.000
854.698; -165.400; -340.000; -279.000
854.946;  -77.500; -181.000; -284.000
855.195; -289.900; -843.000; -868.000
855.444; -147.100; -395.000; -420.000
855.693; -189.900; -345.000; -432.000
855.941; -165.100; -387.000; -516.000
856.190;  -94.900; -256.000; -382.000
856.439; -238.700; -652.000; -703.000
856.687; -103.300;  -99.000;  -72.000
856.936; -174.100; -621.000; -323.000
857.184; -309.500;-1067.000;-1020.000
857.433; -150.000; -423.000; -512.000
857.681; -310.500; -989.000; -953.000
857.930; -114.500; -282.000; -433.000
858.178; -294.900; -856.000; -929.000
858.427; -230.300; -802.000; -781.000
858.675; -232.900; -377.000; -544.000
858.923; -157.300; -527.000; -819.000
859.172; -332.200;-1094.000;-1070.000
859.420; -128.900; -339.000; -239.000
859.668; -216.500; -624.000; -628.000
859.916;    0.400;  109.000;  115.000
860.164; -192.700; -699.000; -603.000
860.413;   -3.800; -878.000; -696.000
860.661;  -58.100; -709.000; -577.000
860.909; -103.700; -339.000; -325.000
861.157; -106.300; -277.000; -444.000
861.405; -184.400; -534.000; -670.000
861.653;   31.700;  310.000;  310.000
861.901;   26.800; -543.000; -613.000
862.149; -197.100; -801.000; -824.000
862.396; -105.400; -297.000; -187.000
862.644; -128.300; -368.000; -347.000
862.892;   36.500;   98.000;  138.000
863.140; -215.100; -549.000; -530.000
863.388; -251.000; -815.000; -759.000
863.635; -218.800; -642.000; -601.000
863.883;   54.800;  231.000;  190.000
864.131; -130.900; -288.000; -357.000
864.378; -214.800; -675.000; -540.000
864.626; -184.000; -347.000; -415.000
864.873; -197.600; -556.000; -505.000
865.121; -240.700; -714.000; -799.000
865.368;   -6.800; -173.000;   75.000
865.616;  -50.300;  -33.000;  -40.000
865.863; -149.900; -462.000; -506.000
866.111; -253.800; -795.000; -824.000
866.358;  -57.400; -426.000; -420.000
866.605; 1714.600;  -64.000; -804.000
866.853; 1248.700; -621.000; -537.000
867.100; -169.100; -728.000; -775.000
867.347; -180.100; -672.000; -611.000
867.594; -213.800; -740.000; -714.000
867.841;   59.900;   97.000;   17.000
868.089; -268.000; -746.000; -698.000
868.336; -149.600; -477.000; -420.000
868.583; -240.400; -637.000; -741.000
868.830;  -61.300; -131.000; -170.000
869.077; -253.400; -859.000; -787.000
869.324; -200.500; -502.000; -458.000
869.571; -193.400; -398.000; -430.000
869.818; -173.800; -485.000; -439.000
870.065; -173.100; -439.000; -513.000
870.311; -167.700; -456.000; -542.000
870.558; -156.800; -332.000; -311.000
870.805;  -78.400; -320.000; -384.000
871.052; -169.200; -494.000; -369.000
871.298;  -78.800; -204.000; -131.000
871.545; -126.900; -151.000; -185.000
871.792;  -82.700; -173.000; -222.000
872.038;  -86.600;   43.000; -126.000
872.285; -195.300; -496.000; -387.000
872.532; -129.400; -357.000; -387.000
872.778;   85.500;  556.000;  403.000
873.025; -147.600; -384.000; -359.000
873.271;  113.000;  501.000;  578.000
873.517;  -59.000; -133.000; -209.000
873.764;  -45.000; -193.000;  -80.000
874.010; -129.800; -143.000; -230.000
874.257;    7.900;  123.000;   90.000
874.503; -180.900; -579.000; -479.000
874.749;  -68.900;   31.000;  275.000
874.995;  -96.400;  -80.000;  -20.000
875.242; -187.400; -540.000; -478.000
875.488; -189.900; -414.000; -439.000
875.734;  -91.300; -106.000; -234.000
875.980; -115.100; -872.000;-1032.000
876.226;  121.500; -157.000; -255.000
876.472;   15.000;  343.000;  237.000
876.718;  -37.000;  184.000;  158.000
876.964;  -13.200;   56.000;   55.000
877.210; -220.900; -547.000; -677.000
877.456; -209.900; -630.000; -557.000
877.702; -267.800; -821.000; -832.000
877.948; -167.600; -377.000; -497.000
878.193;   59.300;  361.000;  255.000
878.439; -171.600; -487.000; -472.000
878.685; -148.800; -272.000; -343.000
878.931; -227.800; -618.000; -676.000
879.176;  -92.000; -201.000; -201.000
879.422; -300.700; -933.000; -820.000
879.668;   36.300;   10.000;   79.000
879.913;   91.200;   53.000;  137.000
880.159;  -61.300; -112.000;  -17.000
880.404;  -82.000; -152.000; -162.000
880.650;  -23.700;   91.000;  141.000
880.895; -253.900; -670.000; -710.000
881.141; -164.300; -454.000; -428.000
881.386; -246.800; -503.000; -658.000
881.631;  -98.800; -311.000; -166.000
881.877;  -26.600;  112.000;  -13.000
882.122; -201.500; -684.000; -600.000
882.367; -126.600; -136.000; -186.000
882.612;  -86.500;  -80.000; -176.000
882.858; -285.400; -877.000; -823.000
883.103; -128.000; -297.000; -267.000
883.348; -281.400; -759.000; -852.000
883.593; -205.400; -677.000; -602.000
883.838;  -87.300; -311.000;  -24.000
884.083;   57.400;  353.000;  288.000
884.328; -185.200; -564.000; -545.000
884.573;  -91.200; -196.000; -143.000
884.818;   -3.800; -694.000; -531.000
885.063;   -2.100; -348.000; -315.000
885.308; -174.300; -475.000; -398.000
885.553;   53.800;  245.000;  325.000
885.797; -189.200; -545.000; -615.000
886.042;  -65.900;    8.000;   58.000
886.287; -101.900; -253.000; -211.000
886.532;  -42.500;   26.000;  204.000
886.776; -159.800; -407.000; -525.000
887.021; -197.900; -621.000; -574.000
887.265; -275.800; -685.000; -689.000
887.510; -194.900; -557.000; -496.000
887.755; -138.700; -194.000; -164.000
887.999; -211.500; -552.000; -575.000
888.244;  -49.800;  -58.000;  161.000
888.488;   58.600;  371.000;  393.000
888.732; -217.200; -368.000; -520.000
888.977; -169.800; -622.000; -567.000
889.221; -241.800; -683.000; -659.000
889.465; -193.000; -422.000; -566.000
889.710;  -64.300;  -56.000; -299.000
889.954;   80.100;  579.000;  467.000
890.198; -246.500; -584.000; -707.000
890.442; -239.300; -716.000; -712.000
890.687; -263.000; -800.000; -753.000
890.931; -109.200; -273.000; -210.000
891.175; -211.600; -502.000; -500.000
891.419;  -99.600; -105.000; -110.000
891.663;  -90.600; -239.000; -112.000
891.907; -263.500; -801.000; -545.000
892.151; -306.600; -920.000; -815.000
892.395; -149.600; -274.000; -387.000
892.638;   42.200;  408.000;  291.000
892.882; -263.100; -780.000; -867.000
893.126;   82.100;  758.000;  558.000
893.370; -104.300; -167.000; -168.000
893.614; -224.400; -714.000; -715.000
893.857; -142.500; -183.000; -197.000
894.101; -218.800; -527.000; -631.000
894.345;   -8.800;  300.000;  150.000
894.588;   75.700;  569.000;  380.000
894.832;  -74.800; -178.000;  -84.000
895.075;  -81.800;   15.000;  -92.000
895.319; -152.100; -552.000; -420.000
895.563; -145.000; -413.000; -353.000
895.806; -232.600; -628.000; -741.000
896.049; -165.600; -576.000; -368.000
896.293;  132.100;  527.000;  405.000
896.536; -148.000; -465.000; -468.000
896.779; -112.200; -149.000;   -1.000
897.023; -258.700; -751.000; -714.000
897.266;    5.700;  325.000;  269.000
897.509; -323.300; -900.000; -901.000
897.752;  -28.400;  149.000;  171.000
897.996; -307.800; -972.000; -864.000
898.239;    0.700;  168.000;  102.000
898.482; -195.800; -431.000; -453.000
898.725;  -50.700;  101.000;   53.000
898.968; -273.400; -609.000; -744.000
899.211; -169.200; -513.000; -361.000
899.454; -229.200; -633.000; -539.000
899.697;  -73.400;   90.000;  -43.000
899.940; -240.100; -761.000; -757.000
900.182; -160.600; -335.000; -405.000
900.425; -111.100; -150.000; -298.000
900.668;   33.200;  491.000;  350.000
900.911; -159.900; -292.000; -345.000
901.154;  -46.800;  141.000;   -3.000
901.396; -213.200; -407.000; -412.000
901.639; -182.500; -430.000; -496.000
901.882; -315.100; -790.000; -809.000
902.124; -111.200;  -29.000; -143.000
902.367; -188.900; -315.000; -361.000
902.609; -203.500; -476.000; -453.000
902.852; -141.400; -108.000; -260.000
903.094; -169.500; -458.000; -337.000
903.337;  -58.600;  -26.000;   53.000
903.579; -163.600; -228.000; -441.000
903.821; -245.300; -597.000; -744.000
904.064;  -57.100;   85.000;  127.000
904.306;  -82.200; -126.000; -166.000
904.548; -119.000; -152.000; -366.000
904.790; -175.600; -195.000; -340.000
905.033; -204.600; -625.000; -577.000
905.275; -207.400; -513.000; -524.000
905.517;   73.200;  468.000;  256.000
905.759; -237.400; -667.000; -761.000
906.001; -152.300; -322.000; -369.000
906.243; -147.200; -162.000; -224.000
906.485;   13.900; -265.000; -207.000
906.727; -140.300; -499.000; -542.000
906.969;  -69.000;  -30.000; -135.000
907.211;    0.800; -316.000; -382.000
907.453;   79.800; -188.000; -237.000
907.695;  -84.700; -158.000; -385.000
907.936;  148.400;  818.000;  706.000
908.178;  -80.300;   92.000; -135.000
908.420;  -77.400; -111.000; -162.000
908.662; -230.400; -633.000; -682.000
908.903; -131.600; -208.000; -123.000
909.145; -118.900; -240.000; -305.000
909.386;   32.300;  315.000;  280.000
909.628;  115.100;  363.000;  397.000
909.870;   23.300;   29.000;  264.000
910.111; -197.800; -809.000; -949.000
910.353;   19.000; -123.000; -161.000
910.594;  -59.700; -574.000; -606.000
910.835;   76.200; -265.000; -326.000
911.077;  104.500; -503.000; -604.000
911.318;  284.500; -505.000; -471.000
911.559;  428.100; -577.000; -880.000
911.801; 1640.300; -284.000; -280.000
912.042;14482.100;  -50.000; -159.000
912.283;32544.000;  404.000;  371.000
912.524; 4124.000; -396.000; -457.000
912.765;  568.900; -193.000;   79.000
913.006;  290.000; -307.000; -338.000
913.247;   11.400; -270.000; -290.000
913.488;  -28.000;  -43.000;   30.000
913.729; -107.900; -373.000; -373.000
913.970;  -92.700;  -96.000; -292.000
914.211; -103.900; -160.000; -198.000
914.452;  -70.400; -118.000;  -11.000
914.693;   88.700;  510.000;  592.000
914.934;  115.000;  510.000;  440.000
915.175;  -94.400;   53.000;  -95.000
915.415;  -92.400; -137.000;   27.000
915.656;  -89.300;  -28.000;  192.000
915.897; -166.700; -252.000;  -82.000
916.137;  -67.600;   74.000;   -9.000
916.378; -191.400; -573.000; -517.000
916.619; -106.800; -159.000;  -63.000
916.859;  -20.200;  303.000;  330.000
917.100;  339.800; 1655.000; 1070.000
917.340;  137.500;  930.000;  728.000
917.581;  129.900;  965.000;  789.000
917.821; -102.000; -171.000;  143.000
918.061;  -22.400; -199.000;  -72.000
918.302; -105.900; -152.000; -211.000
918.542;  -59.200;  -22.000;    3.000
918.782;   56.800;  369.000;  377.000
919.023;  121.300;  360.000;  427.000
919.263; 1793.200; 8131.000;  202.000
919.503;  582.300; -137.000;  -54.000
919.743;  413.200;  390.000;  266.000
919.983;  103.600; -134.000;  -26.000
920.223;  -10.200;  135.000;   14.000
920.463;  143.400;  631.000;  554.000
920.703;   54.400;   84.000;   39.000
920.943;   56.100; -110.000;   90.000
921.183;   49.800; -414.000; -405.000
921.423;  380.000;  307.000;  546.000
921.663;  396.000; -174.000; -257.000
921.903; 1112.700;  237.000;  173.000
922.143; 6502.100;  372.000;  389.000
922.383;23890.200;  158.000;  115.000
922.622; 6605.200; -120.000;  -15.000
922.862;  923.900;  796.000;  785.000
923.102;  260.100;  -51.000;   33.000
923.341;   97.700;   59.000;   74.000
923.581;   37.300;  450.000;  360.000
923.821;   25.800;  301.000;  398.000
924.060;    5.300;  351.000;  193.000
924.300;  -88.000;  -16.000; -128.000
924.539;   38.500;  584.000;  473.000
924.779;   95.900;  812.000;  597.000
925.018;  -32.600;  247.000;  353.000
925.257;   61.600;  595.000;  666.000
925.497;   -8.600;  447.000;  412.000
925.736;  -62.000;  -35.000;  102.000
925.975;   52.100;  687.000;  669.000
926.214;  139.500;  907.000;  850.000
926.454;  112.100;  706.000;  757.000
926.693;   36.000;  419.000;  543.000
926.932;  122.800; 1021.000;  825.000
927.171;  203.700; 1107.000; 1044.000
927.410;  156.200; 1144.000;  967.000
927.649;  105.600;  924.000;  742.000
927.888;   46.200;  590.000;  564.000
928.127;   67.400;  680.000;  678.000
928.366;   75.400;  842.000;  826.000
928.605;  152.300;  831.000;  737.000
928.844;  328.300; 1451.000; 1393.000
929.083;  447.100;  770.000;  613.000
929.321;  316.100; 1335.000; 1359.000
929.560;  201.300; 1158.000; 1122.000
929.799;  -22.200;  574.000;  475.000
930.038;  257.200; 1025.000; 1394.000
930.276;  -38.500;  334.000;  397.000
930.515;   90.300;  827.000;  681.000
930.753;   23.800;  614.000;  589.000
930.992;   31.200;  664.000;  717.000
931.230;   73.600;  847.000;  847.000
931.469;  417.300; 2162.000;  892.000
931.707;  230.600;  840.000;  751.000
931.946;  226.100; 1278.000; 1344.000
932.184;  170.000; 1437.000; 1175.000
932.423;  136.600; 1265.000;  963.000
932.661;  225.300; 1296.000; 1428.000
932.899;   66.400;  987.000;  821.000
933.137;   71.400;  754.000;  564.000
933.376;  325.400; 1664.000; 1335.000
933.614;  317.300; 1759.000; 1196.000
933.852;  178.500; 1357.000; 1171.000
934.090;  294.800; 1722.000; 1747.000
934.328;  257.500; 1252.000; 1457.000
934.566;  218.100; 1431.000; 1110.000
934.804;  229.800; 1263.000; 1309.000
935.042;  501.400; 1861.000; 1850.000
935.280; 1525.500; 2088.000; 2063.000
935.518; 1305.700; 2113.000; 2007.000
935.756;  551.500; 2481.000; 2316.000
935.994;  299.900; 1808.000; 1751.000
936.231;  666.100; 2890.000; 2950.000
936.469;  390.200; 2367.000; 2378.000
936.707;  402.300; 2220.000; 2167.000
936.945;  499.300; 2825.000; 2882.000
937.182;  487.700; 2679.000; 2741.000
937.420;  659.600; 3602.000; 3031.000
937.657;  736.800; 3365.000; 3478.000
937.895;  686.700; 3331.000; 3488.000
938.133;  713.400; 3540.000; 3528.000
938.370;  708.900; 3896.000; 4191.000
938.607;  883.900; 4488.000; 4205.000
938.845; 1202.000; 5587.000; 5549.000
939.082; 1066.500; 5387.000; 5177.000
939.320; 1151.100; 5799.000; 5728.000
939.557; 1335.000; 6549.000; 6491.000
939.794; 1482.700; 7285.000; 7097.000
940.031; 1785.200; 8421.000; 8368.000
940.269; 2091.400; 9552.000; 9107.000
940.506; 2313.200;10901.000;10507.000

