
Integration time [ms]: 100.000
Averaging Nr. [scans]: 40
Smoothing Nr. [pixels]: 0
Data measured with spectrometer [name]: 2101013U2
Wave   ;Sample   ;Dark     ;Reference
[nm]   ;[counts] ;[counts] ;[counts] 

394.013;   54.668; -450.257; -315.536
394.305;  231.441; -461.258; -419.536
394.596; 1103.463; -676.269; -527.514
394.887; 2578.130; -796.268; -654.518
395.178; 1024.935;  145.736;   11.476
395.470;   92.522; -210.263; -356.526
395.761;  223.620;  305.734;  394.479
396.052;  351.863; -545.284; -306.489
396.343;  362.083; -557.276; -454.503
396.634;  134.402; -200.279; -290.497
396.926;  146.302; -618.268; -565.517
397.217;  146.087;   11.725;  -17.504
397.508;   66.303; -366.273; -154.507
397.799;   54.377; -555.279; -571.497
398.090;   -4.929; -973.280; -902.495
398.381;  107.838;   11.708;  -11.473
398.672;    6.814; -585.292; -742.473
398.963;   67.133; -348.279; -373.498
399.254;  124.173;   54.709; -209.475
399.545;   -0.209;-1017.266; -883.520
399.836;   84.047; -407.277; -343.501
400.127;   72.139; -205.295; -209.468
400.418;   62.473; -423.274; -392.506
400.709;   95.583; -359.281; -333.493
401.000;   62.952; -268.291; -309.476
401.290;  118.726;  225.698;  115.545
401.581;   79.371; -166.286; -228.485
401.872;   47.461; -542.298; -486.462
402.163;   77.457; -313.296; -252.467
402.454;  106.474; -123.291; -163.475
402.744;  100.698; -844.297; -813.465
403.035;  534.004; -226.293;  -86.471
403.326;  656.317; -366.292; -384.474
403.617;  430.455;  204.701;  165.539
403.907;  257.494; -593.283; -679.490
404.198; 2341.455; -545.307; -599.446
404.489; 6089.974; -618.283; -588.491
404.779; 2107.379; -618.302; -660.456
405.070;  247.608;  -67.304; -174.451
405.360;  343.256; -259.293; -238.472
405.651;  360.765;  125.699;   98.542
405.942;  212.716;  209.714;  127.516
406.232;  313.030; -432.285; -413.487
406.523;  546.649;  641.706;  758.530
406.813;  117.968; -579.286; -644.484
407.104;  384.187;  261.708;  144.527
407.394;  222.432; -604.299; -591.462
407.685;  186.480;  336.715;  222.513
407.975;   64.272; -400.283; -382.490
408.265;  133.563; -134.289; -190.478
408.556;   69.646; -472.291; -459.475
408.846;  182.650;  474.706;  429.530
409.137;   90.622;   -1.288; -216.480
409.427;   66.055; -193.285; -271.487
409.717;   35.481; -776.273; -692.508
410.007;  151.949;    4.715; -170.486
410.298;  100.592; -360.295; -342.469
410.588;   83.003; -495.285; -510.486
410.878;   46.683; -792.287; -873.482
411.168;  129.014; -481.298; -478.463
411.459;  125.867; -295.283; -242.489
411.749;   84.044; -609.292; -507.474
412.039;   85.170; -755.289; -386.480
412.329;  223.190;   40.722;  132.501
412.619;  193.918;  -62.286; -148.485
412.909;  393.616;  639.711;  594.521
413.199;  354.071; -130.280; -251.495
413.490;  433.456;  521.710;  352.523
413.780;  145.150;-1013.279; -913.496
414.070;  349.009;  -46.276;  235.497
414.360;  389.836; -729.278; -666.498
414.650;  452.254; -726.288; -688.482
414.940;  527.549; -538.280; -441.496
415.230;  920.926;   50.712;   74.519
415.520; 5934.012;  155.730;   66.486
415.809;23331.258; -305.281; -125.493
416.099;18016.749; -388.277; -229.501
416.389; 4898.770;  435.726;  236.494
416.679; 2917.050;   91.738;   85.473
416.969;  526.287; -527.287; -503.483
417.259;  464.077;  341.721;  171.503
417.549;  722.706;  522.718;  318.508
417.838; 1601.579; -205.268; -147.518
418.128; 5251.187;  650.710;  492.522
418.418; 4376.063; -491.272; -579.509
418.708; 3008.196;    9.726;  -48.506
418.997;11080.241; -474.275; -480.505
419.287;11551.677; -733.273; -790.507
419.577;10757.741; -160.283; -123.489
419.866;35841.872; -588.277; -498.501
420.156;37181.158; -242.270;  -55.513
420.446; 6772.518; -112.263;  -26.526
420.735;  935.327; -376.271; -446.512
421.025;  855.310; 1830.722;  315.502
421.314;  776.775; -203.271; -226.512
421.604; 1695.197;   89.732;  233.484
421.893;  969.797; -705.271; -602.511
422.183;  251.493; -487.263; -461.526
422.472;  383.423;  -36.271; -107.511
422.762;  491.897; -416.266; -379.521
423.051;  271.134; -916.276; -916.503
423.341;  330.554; -491.273; -439.507
423.630;  442.253; -121.265;   15.477
423.919;  411.291;   58.725;   49.495
424.209;  378.748;  -31.263;   56.473
424.498;  506.727;   68.732;  161.483
424.787; 1088.308; -535.267; -601.518
425.077; 3318.127;   34.735;   29.478
425.366; 4880.554; -734.262; -744.528
425.655; 9592.755;  639.727;  259.493
425.945;19987.883; -313.247; -268.554
426.234;11185.652;  117.741;  300.467
426.523; 4949.957;  -86.259; -350.534
426.812; 6781.343;  107.734;  159.480
427.101; 9869.818; -127.269; -323.515
427.390;12653.887;  -55.270;  -86.514
427.680; 3083.852; -624.257; -411.538
427.969;  512.387; -330.255; -301.540
428.258;  332.343; -385.257; -477.536
428.547;  579.742;  449.728;  397.490
428.836; 1399.204; -421.253; -398.543
429.125; 1992.609; -199.259;  -72.534
429.414;  865.276; -330.251; -294.548
429.703; 3044.226; -231.251; -213.548
429.992; 9026.280; -938.250; -828.549
430.281; 5901.411; -397.264; -331.524
430.570;  619.117;  -21.252;   32.454
430.859;  629.156;  279.741;  352.466
431.148;  455.154;  636.752;  631.446
431.437;  310.066;  391.748;  367.454
431.725;  161.645; -544.257; -481.536
432.014;  134.861; -845.253; -756.545
432.303;  403.030; -149.239; -105.569
432.592;  690.042; -460.263; -178.525
432.881; 1055.480; -601.248; -437.554
433.169; 5938.263; -343.255;  -61.540
433.458;11971.463;  445.765;  540.424
433.747; 5063.060; -397.261; -289.529
434.036;  961.980; -275.242; -280.564
434.324; 2034.742; -395.249; -379.551
434.613; 3551.349;   40.757;  159.437
434.902; 1228.945;  333.760;  439.433
435.190;  678.778;   75.761;  295.431
435.479;  403.456;  -52.245;   83.441
435.767;  128.989; -411.244; -427.561
436.056;  254.001; -340.242; -294.563
436.345;  374.622; -372.240; -223.568
436.633;  399.488;   60.750;  383.450
436.922;  312.424;  208.760;  414.432
437.210;  719.303; -194.236;    1.426
437.499; 2360.911; -583.235; -432.576
437.787; 2649.853; -339.236;  -10.574
438.075;  642.159;   56.761;  162.430
438.364;  852.737;  -44.238;  250.429
438.652;  536.241; -286.226; -138.592
438.941;  177.705;    3.770;  269.415
439.229;   21.039; -665.252; -466.545
439.517;   54.145; -160.234;  -85.577
439.806;    5.732; -501.225; -290.595
440.094;  208.028;  377.766;  650.421
440.382;  223.031; -653.233; -302.580
440.670;  259.211; -361.235; -285.576
440.959;   35.049; -347.223; -170.599
441.247;   93.317; -151.229; -109.587
441.535;  127.318; -266.235;   31.423
441.823;   53.300; -497.234; -305.578
442.111;  214.146;  173.771;  327.412
442.400;  621.430; -628.245; -335.559
442.688; 1708.702; -111.234; -620.579
442.976; 1251.362; -786.213; -450.617
443.264;  140.114; -324.224; -364.597
443.552;  117.042; -258.226;   51.408
443.840;  174.617;  602.765;  876.423
444.128;  131.630;  265.767;  269.420
444.416;    8.199; -694.228; -312.588
444.704;   44.104; -465.219;  -92.605
444.992;   94.045;   -0.226;  240.407
445.280;   75.081; -517.230;  -94.585
445.568;   57.291; -694.212; -396.618
445.856;  424.713; -174.221;  357.398
446.143;  943.325;  -54.220;   -7.604
446.431;  757.652;  -25.228;  625.411
446.719;  268.798;  489.783;  675.391
447.007;  221.025;  481.769;  705.416
447.295;  197.296;  597.777;  871.402
447.583;   93.814; -464.229;  -34.587
447.870;  165.785; -434.221; -202.601
448.158;  479.055; -104.230;  129.415
448.446;  385.826; -800.219; -338.604
448.733;  194.065;   13.776;  269.403
449.021;  284.065;   60.788;  341.382
449.309;  191.105; -296.210;  208.379
449.596;  235.269;  128.783;   59.392
449.884;  170.353; -571.222; -325.600
450.172;  160.483; -756.227; -406.590
450.459;  433.145;  645.786;  780.387
450.747; 2235.693; -411.218; -147.608
451.034; 7123.128;  493.772;  889.411
451.322; 5925.798; -413.214; -170.614
451.609;  520.217;  292.777;  508.403
451.897;  564.968; -550.203; -183.634
452.184; 1736.947; -622.223; -400.598
452.472; 1636.402;   97.792;  269.375
452.759;  362.602;  512.781;  864.395
453.047;  131.363; -407.212; -125.617
453.334;  103.960; -732.219; -216.606
453.621;  106.851; -438.214; -161.615
453.909;  148.210;   13.796;  384.368
454.196;  112.005; -299.199; -123.641
454.483;  228.881;  317.798;  540.364
454.771;  157.030; -215.208;  196.374
455.058;   60.908; -316.207;  102.374
455.345;  115.136;   71.807;  344.347
455.632;   99.061; -128.207;  235.373
455.919;   48.953;  -82.196;  182.354
456.207;  -48.990; -774.198; -450.642
456.494;   -4.907; -475.200;  -66.639
456.781;   27.702; -399.202; -198.635
457.068;   68.518; -253.206;  -29.628
457.355;    0.369; -698.206; -401.629
457.642;    4.524; -552.205; -290.630
457.929;   15.102; -778.194; -417.651
458.216;   70.288; -575.212; -354.617
458.503;  233.056; -173.193;  -19.652
458.790;  221.202; -864.208; -630.625
459.077;  287.482;  -77.202;  110.364
459.364;  776.295; -350.195; -210.649
459.651; 1603.716;  -46.206;  220.372
459.938;  742.443; -864.209; -665.623
460.225;  175.335;  132.799;  276.363
460.512;  -39.825; -836.197; -688.645
460.799;  131.542;  -32.218;  320.392
461.086;   85.023; -370.200; -251.640
461.372;   55.760; -509.198; -279.642
461.659;  132.879; -165.196;  108.354
461.946;   87.655; -445.193;  -54.651
462.233;  258.820;  842.800;  888.361
462.519;  370.592; -814.201; -464.639
462.806;  970.276; -768.197; -497.645
463.093;  837.651; -445.191;  -66.656
463.380;  -18.133; -920.186; -824.664
463.666;   74.077; -259.197;  -18.646
463.953;   86.515; -406.195; -243.648
464.239;  207.589; -173.195;  -77.648
464.526;  400.650;  413.806;  743.350
464.813;  386.787; -565.190; -304.658
465.099;  374.156;  606.807;  607.348
465.386;  376.785;  903.807;  921.348
465.672;   50.201; -694.197; -522.645
465.959;   36.430; -598.188; -520.662
466.245;   17.610; -468.193; -359.652
466.532;  122.212; -109.195;   63.352
466.818;   79.367; -357.186; -216.664
467.104;   22.707; -488.182; -415.672
467.391;   -7.011; -628.189; -459.658
467.677;   55.395; -289.186;    9.335
467.964;    0.271; -682.189; -471.660
468.250;   88.273; -331.186; -160.665
468.536;   86.290;   90.811;  180.341
468.822;  -16.940; -821.184; -574.668
469.109;  160.862;  351.827;  471.311
469.395;  205.395;  729.808;  787.346
469.681;  192.168;   46.811;  156.341
469.967; 1204.323; -699.188; -382.660
470.254; 2576.381; -494.188; -306.662
470.540; 1651.503; -601.196; -476.646
470.826;  245.343; -488.181; -397.675
471.112;  298.938;  288.816;  113.331
471.398;   93.168; -253.183;  -58.670
471.684;   63.396; -626.177; -447.680
471.970;   -4.878; -918.180; -981.675
472.256;   23.269; -521.192; -441.654
472.542;   32.298; -499.171; -434.691
472.828;   27.328; -743.182; -607.672
473.114;   45.192; -380.166; -283.700
473.400;   40.988; -504.175; -293.684
473.686;   67.548; -452.166; -400.701
473.972;   81.927; -230.174; -131.687
474.258;  -49.963; -925.173; -843.689
474.544;  187.263; -183.178;   -2.679
474.830;  294.164;  -65.175;   45.316
475.116;  434.414; -123.190; -196.658
475.401;  595.224; -558.180; -467.676
475.687;  194.373; -725.180; -718.676
475.973;    4.536; -673.181; -770.673
476.259;  275.691;  736.825;  764.315
476.544;  363.629; -539.176; -437.682
476.830;  767.169; -398.172; -322.690
477.116;  641.478; -430.177; -336.682
477.401;  126.973;  346.820;  358.324
477.687;   -3.612; -289.175; -405.684
477.973;   42.414;   21.819;   28.326
478.258;   -9.107; -448.163; -348.706
478.544;   62.628;   21.815;   61.334
478.829;  -45.221; -818.171; -738.692
479.115;  -26.506; -749.172; -651.690
479.401;   -2.252; -444.174; -449.686
479.686;   43.122; -253.180;  -74.676
479.972;  -24.057; -886.178; -776.680
480.257;   54.568; -258.166;  -65.700
480.542;    1.258; -614.170; -469.693
480.828;  257.711; 1288.824; 1392.317
481.113;  -30.166; -464.176; -426.683
481.399;    9.142; -236.161; -202.711
481.684;  -35.707; -620.166; -462.700
481.969;   29.731; -158.159;  -73.713
482.255;   -7.057; -439.169; -285.695
482.540;   16.043; -569.178; -441.680
482.825;   12.012; -395.187; -404.663
483.110;   90.647;  -85.169; -105.696
483.396;  153.302; -840.157; -652.718
483.681;  467.477;  543.826;  730.313
483.966;  164.625; -696.160; -700.712
484.251;   32.876; -404.174; -310.687
484.536;   -9.397; -356.165; -378.703
484.822;   20.179; -205.173; -218.687
485.107;  -12.835; -599.152; -502.726
485.392;  129.609;  662.836;  541.296
485.677;   83.781;  354.832;  163.302
485.962;  120.625;  160.843;  270.283
486.247;  115.001;  -14.162;   -8.707
486.532;   51.669; -178.166; -325.701
486.817;  160.362;  381.839;  431.291
487.102;  132.773; -453.154; -514.722
487.387;  606.504; -637.156; -652.718
487.672; 1071.439; -154.164;  -38.705
487.957;  681.069; -394.160; -286.711
488.241;  211.357; -290.150; -314.729
488.526;  661.267; -280.152; -148.726
488.811; 1116.070; -881.177; -818.680
489.096;  840.601; -666.154; -702.723
489.381;  492.238;    3.847;  162.275
489.666;  340.542; -428.161; -510.710
489.950;  172.129;  558.846;  627.277
490.235;  -32.298; -480.151; -458.728
490.520;  -30.359; -756.161; -723.710
490.804;  -60.544; -827.156; -736.719
491.089;    4.448; -469.149; -299.732
491.374;   42.888; -132.164;  -75.704
491.658;   10.134; -817.147; -717.735
491.943;  187.846; -657.152; -609.727
492.227;  270.169; -178.155;  -38.721
492.512;   63.124; -294.157; -341.717
492.797;  -50.958; -713.149; -716.731
493.081;  -53.288; -588.147; -598.735
493.366;  -24.632; -751.161; -635.711
493.650;  204.790;  831.859;  917.254
493.935;   40.984; -648.147; -447.734
494.219;  -44.423; -778.142; -687.743
494.503;  -30.788; -585.150; -487.730
494.788;   47.266;   46.842;   74.285
495.072;  108.658;  184.850;  434.271
495.356;  169.101; -463.148; -343.733
495.641;  471.918; -812.146; -736.736
495.925;  449.686; -976.156; -903.719
496.209;   60.147; -599.149; -451.732
496.494;  -40.872; -763.142; -544.744
496.778;    9.723; -364.154; -360.722
497.062;  -56.439; -819.156; -627.719
497.346;  -26.354; -869.160; -640.711
497.631;  136.304;  580.852;  560.266
497.915;   72.704;  -64.145;  175.261
498.199;   61.527; -341.157; -277.718
498.483;   56.040; -562.152; -508.725
498.767;  173.734;  301.850;  300.271
499.051;  176.495; -126.149; -100.732
499.335;   26.093; -693.149; -739.731
499.619;  -27.584; -381.129; -423.767
499.903;   37.393; -272.155;  -65.721
500.187;   28.556; -588.153; -316.724
500.471;   28.445; -796.152; -595.727
500.755;  122.266;   62.839;  -96.710
501.039;   16.793; -270.155; -357.721
501.323;  112.642;  -21.141;  264.254
501.607;   39.869; -447.163; -503.706
501.891;   13.604; -607.156; -512.718
502.174;  -16.410; -726.144; -585.741
502.458;   76.049;   89.849;  370.273
502.742;   45.341; -180.138; -191.751
503.026;  101.458; -412.147; -254.734
503.310;  145.105; -437.159; -375.713
503.593;  119.910; -464.147; -325.735
503.877;  116.981; -232.133; -156.760
504.161;  194.233;    2.847;  -50.724
504.444;  135.243; -841.158; -710.716
504.728;  427.612; -487.164; -522.704
505.012;  673.181; -257.150;  -76.729
505.295;  526.567; -417.161; -212.711
505.579;  499.785; -256.156; -496.719
505.862;  688.350; -555.145; -333.738
506.146;  657.382; -681.159; -758.714
506.429;  395.882;  568.841;  461.286
506.713;   55.978; -732.151; -667.728
506.996;  315.798;   90.846;  295.278
507.280;  320.282; -633.165; -474.703
507.563;  245.966; -469.155; -261.721
507.847;   92.456; -423.153; -112.724
508.130;   89.143; -665.161; -456.711
508.413;  108.189; -758.167; -577.700
508.697;  236.339; -151.167;   12.300
508.980;  137.258; -422.153; -312.724
509.263;    5.363; -466.155; -450.720
509.547;   23.131; -124.150;   82.271
509.830;   55.570; -172.160;  140.289
510.113;   99.660;  128.844;  298.281
510.396;   54.913; -530.152; -300.725
510.680;  207.777; -818.145; -812.738
510.963;  788.477;  184.846;  180.277
511.246;  676.539; -493.150; -357.730
511.529;  293.607; -482.145;  -83.739
511.812;  341.652; -250.134;   10.241
512.095;  253.976; -740.151; -396.728
512.378;   69.289; -317.147; -245.736
512.661;   28.898; -703.137; -623.753
512.944;   27.304; -750.142; -637.744
513.227;   70.195; -170.137; -171.752
513.510;   29.965; -479.144; -671.741
513.793;   39.871; -485.140; -435.747
514.076;  139.562;  -43.127;  -39.771
514.359;  121.348; -294.149; -135.732
514.642;   82.107; -442.142; -567.744
514.925;  715.744;  581.860;  561.253
515.208;  917.249; -498.134; -443.758
515.491;  624.888; -276.133; -182.761
515.773;  336.919; -410.143; -337.742
516.056; 1930.655;  249.864;  409.246
516.339; 2643.033; -754.136; -652.755
516.622; 2005.811; -518.150; -488.730
516.904; 1447.151;  882.857;  975.257
517.187;  699.919; -730.138; -523.752
517.470;  434.475; -568.143; -510.743
517.752;  405.861; -624.136; -470.756
518.035;  321.807; -708.139; -725.749
518.318;  352.384; -799.136; -744.755
518.600; 2192.816; -300.132; -325.762
518.883; 3021.557;  310.858;   88.256
519.165; 1459.062; -585.138; -426.751
519.448;  424.091;  -61.132;  -19.762
519.730;  224.444; -573.126; -415.773
520.013;  351.209;  588.867;  664.240
520.295; 1004.829;  -94.134;  -15.759
520.578; 2211.404; -335.131; -305.764
520.860; 2462.216; -254.132;   56.238
521.143; 1279.688; -763.135; -584.756
521.425;  490.007; -251.125; -279.775
521.707;  648.462; -622.127; -380.771
521.990; 1665.763; -199.127;  167.229
522.272; 1873.173; -116.140;   -4.748
522.554;  928.445; -237.143; -157.742
522.836;  426.102;  -24.134;   99.241
523.119;  234.382; -496.148; -189.734
523.401;  165.336; -448.130; -314.766
523.683;  101.674; -865.137; -693.753
523.965;  264.367;  408.862;  260.248
524.247;  247.653;   54.878;  170.220
524.529;  202.554; -451.134; -367.759
524.812;  351.612;   -3.130;  191.234
525.094;  786.241; -773.138; -631.751
525.376; 1230.941; -143.124;   78.223
525.658;  762.406; -441.136; -339.754
525.940;   12.825; -805.131; -671.764
526.222;   48.784; -188.136;  -88.755
526.504;  124.073; -190.131;   32.237
526.786;  243.156; -960.133; -647.760
527.068;  357.647; -124.123;  -67.778
527.349;  165.752; -865.137; -774.754
527.631;  140.266; -137.132;   22.238
527.913;  116.711; -664.127; -450.771
528.195;  144.625; -761.125; -639.774
528.477;  247.399;  -93.134;  -30.758
528.759;  119.662; -648.130; -522.766
529.040;   60.595; -569.123; -293.778
529.322;   42.753; -235.125;  -10.774
529.604;  154.915;  -47.130;   93.233
529.886;  148.619; -546.126; -302.773
530.167;  146.031;  232.870;  192.235
530.449;   42.738;    1.853;   63.265
530.731;   22.102; -572.122; -459.779
531.012;   63.598; -513.120; -216.784
531.294;   76.587; -118.116;  -43.792
531.575;  140.282;  290.875;  538.225
531.857;   54.894; -548.135; -266.757
532.138;   87.565; -113.141;   40.254
532.420;  193.690;  294.865;  403.244
532.701;  259.934; -722.133; -751.760
532.983;  386.062;  232.867;  182.239
533.264;  141.217; -243.126;  175.228
533.546;  -31.241; -491.136; -508.755
533.827;   55.255;  173.867;   -1.759
534.109;   54.894; -352.135;  -80.757
534.390;  114.195; -725.132; -582.762
534.671;  280.690; -270.135;  -82.756
534.953;  130.473; -751.123; -611.779
535.234;   33.347; -426.117; -255.789
535.515;  -85.244; -891.119; -735.785
535.796;  -16.393; -431.128; -193.770
536.078; -115.359;-1050.124; -904.777
536.359;   13.724;  -22.123;    3.221
536.640;  -10.698; -480.125; -197.774
536.921;  164.345;  225.871;  143.232
537.202;  377.188;  -87.138;  -16.751
537.483;  434.853;  251.869;  377.236
537.764;  170.831;   17.870;   98.235
538.045;  -25.427; -543.134; -371.758
538.326;  -22.253; -596.129; -447.768
538.607;   17.663; -686.127; -476.771
538.888;  162.689;   98.879;    5.218
539.169;  177.984; -704.122; -535.781
539.450;  328.194;  236.871;   16.233
539.731;  226.368; -361.121; -182.783
540.012;  132.523;  199.880;  412.216
540.293;  109.335;   82.876;  158.224
540.574;    9.983; -895.113; -717.796
540.855;  460.517;  435.879;  377.218
541.136;  534.981;   47.878;  139.220
541.416;  269.363; -161.130; -220.766
541.697;  186.099; -274.131; -170.763
541.978;  956.167; -270.135; -315.757
542.259; 1213.013; -211.127; -236.771
542.539;  589.956; -191.116; -186.790
542.820;  196.557;  461.875;  480.225
543.101;  138.953;  -52.145;  -77.738
543.381;   52.712; -638.127; -591.771
543.662;  262.110;  159.873; -254.771
543.942;  551.558; -751.127; -830.770
544.223;  996.058;  193.878;  161.219
544.504;  639.816; -275.124; -182.777
544.784;  563.369; -592.126; -408.773
545.065; 1567.860;  104.884; -254.791
545.345; 1847.757;  227.881;   14.215
545.626; 1221.932;  -14.113; -108.796
545.906;  827.156;   77.869;   98.235
546.186;  325.298;   92.874;  -95.773
546.467;  203.193;   99.877;  -95.778
546.747;  299.756;  264.884;  327.210
547.027;  357.739;   91.876;  111.223
547.308;  306.233; -376.127; -530.770
547.588;  391.822;  299.871;  371.232
547.868;  191.707;  458.870;  588.235
548.149;  197.917;  609.885;  593.207
548.429;  127.936; -347.127; -299.771
548.709;  162.848; -645.120; -461.784
548.989;  457.491;   84.882;   88.213
549.269; 1926.214;   10.868;  139.239
549.550; 4456.897;  215.877;  117.222
549.830; 3951.925; -758.111; -556.799
550.110;  787.557; -468.110; -320.801
550.390;  752.903; -128.122;  -56.779
550.670; 1052.553; -868.114; -783.795
550.950;  751.666; -509.121; -471.782
551.230;  178.062;  549.879;  460.218
551.510;    0.765; -381.121; -326.782
551.790;   35.065; -173.109; -127.803
552.070;  251.618;  940.877; 1181.223
552.350;  368.736; -492.119; -377.786
552.630;  546.360;   -2.121;   77.219
552.909;  332.735;  181.884;   73.209
553.189;  218.796;  -49.132;   33.237
553.469;  163.810; -703.119; -514.786
553.749;  174.439; -469.127; -357.772
554.029;  149.126;   33.883;  -24.790
554.308;  139.796; -154.115;  -37.794
554.588;   48.206; -196.128; -204.770
554.868;   58.417; -366.121;  -47.782
555.147;  133.218; -114.115;  -46.793
555.427;  569.088; -260.116; -250.792
555.707; 3564.391; -284.115; -200.793
555.986; 4271.528; -719.111; -538.800
556.266; 2241.305;   23.884;   72.210
556.546;  112.615; -888.121; -675.782
556.825;  228.026; -657.114; -556.794
557.105; 1672.904; -125.128;   17.230
557.384; 1919.509;  122.884;  187.209
557.664;  719.537; -717.116; -508.792
557.943;  101.466; -557.121; -411.782
558.222;  162.569; -345.118; -344.788
558.502;  256.770; -116.115;  -76.793
558.781;  453.865;  194.885;  499.208
559.061;  371.594; -232.118; -227.788
559.340;  279.724;  302.883;  353.211
559.619;  644.279;   93.884;  148.210
559.899;  946.701; -239.117; -266.789
560.178;  831.219; -778.115; -593.793
560.457; 2869.852; -623.117; -562.790
560.736; 4009.779; -472.111; -482.800
561.015; 2684.577; -500.128; -502.769
561.295;  360.860;  180.893;  215.193
561.574;  351.592;  119.885;  116.207
561.853;  477.344;  274.891;  303.197
562.132;  473.497;  -45.114;  182.206
562.411;  399.836;  396.879;  553.219
562.690;  118.740; -592.115; -458.792
562.969;  142.114;  472.888;  630.203
563.248;  468.008; 2966.878; 2487.219
563.527;  222.054; -290.111; -408.800
563.806;  350.086; -650.127; -521.771
564.085;  388.400; -297.105; -206.810
564.364;  224.429; -594.117; -405.790
564.643;  457.536; -276.121; -223.781
564.922; 1727.613;  221.890;  397.198
565.201; 1706.792; -640.109; -700.803
565.479;  746.089; -297.115; -219.792
565.758;  283.179; -810.128; -712.770
566.037;  453.168; -155.109; -100.803
566.316;  223.134; -286.116;  -28.791
566.595;   46.542;  -17.115;  -12.793
566.873;   95.481; -166.111;  -79.801
567.152;  -47.536; -490.113; -590.797
567.431;   -1.070; -113.116;    6.210
567.709;   16.935; -344.107; -212.807
567.988;  242.775; -810.114; -769.794
568.266;  492.766; -160.115;  -68.793
568.545;  351.947; -644.100; -514.819
568.824;  537.213;  160.885;  356.208
569.102;  498.925; -351.114; -235.794
569.381;  208.437; -492.116; -407.792
569.659;  -38.090; -553.113; -553.796
569.938;   55.557; -743.122; -465.780
570.216;   91.021; -225.109; -225.804
570.494;  -21.897; -632.114; -572.795
570.773;   28.315;  202.879;  114.218
571.051;   18.346; -373.123; -357.778
571.330;   44.583; -221.113; -174.796
571.608;   37.565; -181.098; -173.823
571.886;  -70.077; -671.111; -581.799
572.164;  -60.458; -739.121; -621.782
572.443;  -50.146; -562.105; -512.811
572.721;  -23.197; -399.117; -289.790
572.999;  -10.679; -280.117; -168.788
573.277;   97.647;  379.894;  620.191
573.555;  264.949;   94.894;   37.190
573.834; 1224.721;  -86.117; -114.788
574.112; 1445.313;  880.893;  811.193
574.390;  432.030; -143.111;  -96.801
574.668;    6.990;  -91.112;  -61.797
574.946;   -8.850; -165.106; -187.810
575.224;  -11.133;   71.891;  -16.803
575.502;  -15.368; -200.116; -204.791
575.780;  -89.534; -767.112; -829.798
576.058;  212.504; 1589.889; 1004.200
576.336;  -27.015; -210.110; -129.801
576.614;  -42.509; -511.112; -340.798
576.891;   34.071; -711.115; -823.794
577.169;  444.479; -158.108; -285.805
577.447;  524.912;  169.893;  202.193
577.725;  261.745;  629.888;  854.201
578.003;   14.968;  -71.112; -371.798
578.280;  102.138; -208.104; -242.812
578.558;   76.870; -450.115; -422.793
578.836;  135.053; -210.114; -145.795
579.114;   43.639; -630.112; -670.797
579.391;   86.448;   -6.117;  -18.789
579.669;  -73.878; -595.114; -704.794
579.947;  165.684; -326.107; -127.806
580.224;  289.759; -692.107; -524.806
580.502;  306.763;  127.893;   76.193
580.779;   30.478;  -42.117;   75.210
581.057;  -65.604; -584.109; -470.804
581.334; -109.197; -726.102; -695.815
581.612;   52.225;   54.895;  511.190
581.889;  -25.034;  -83.101; -129.818
582.167;  -29.345; -298.099; -190.821
582.444;  -95.815; -845.102; -814.817
582.721;  112.761;  657.899;  715.183
582.999;   44.052; -326.100; -167.821
583.276;  473.475; -812.123; -713.779
583.553;  625.156; -364.102; -294.816
583.831;  211.109; -607.104; -631.812
584.108;   61.052;  349.892;  174.195
584.385;   16.777; -122.102;  -98.815
584.662;  -70.694; -651.111; -828.801
584.940;   35.605;  204.889;  204.199
585.217;  -11.390;  -73.113; -303.796
585.494;   41.664;   71.890;  118.198
585.771;  200.397; -250.109; -354.804
586.048;  476.334; -196.113;  -76.796
586.325;  276.784; -721.110; -773.801
586.602;  106.438;  230.896;  213.188
586.879;  -17.576; -499.100; -580.820
587.156;   59.851; -156.105; -331.810
587.433;  -47.917; -701.102; -667.817
587.710;   67.942;  152.888;  234.202
587.987;  281.956; -264.105; -236.811
588.264;  754.718;  315.888;  387.202
588.541; 1285.841;  -61.104;   26.187
588.818; 2492.324;   72.892;  171.196
589.095; 2154.961; -163.104; -174.812
589.371;  349.745; -459.109; -414.804
589.648;    0.488; -581.107; -437.807
589.925;   31.829; -517.114; -621.795
590.202;    0.691; -741.112; -607.798
590.478;   97.083; -166.105;  -73.811
590.755;  258.080; -241.108; -132.806
591.032; 2280.186; -741.110; -699.802
591.308; 3116.430; -732.094; -790.831
591.585; 1607.160; -573.110; -560.802
591.862;  128.060;-1056.102; -950.817
592.138;   69.303; -475.108; -474.805
592.415;  134.589; -486.104; -495.813
592.691; 1393.312;  460.896;  518.188
592.968; 1743.242; -208.098; -123.824
593.244;  863.031; -695.116; -595.790
593.521;   71.560; -105.102;  -42.817
593.797;  -17.071; -810.122; -720.780
594.074;  299.979; -611.096; -588.826
594.350;  648.315;  828.905;  729.172
594.626;  278.331; -303.111; -283.801
594.903;   88.536; -643.101; -645.817
595.179;  174.493;  243.896;  418.187
595.455;   -4.561; -136.107; -150.807
595.731;   -9.931;  -19.103;  -38.814
596.008;  -30.499; -464.111; -434.800
596.284;   23.526; -187.100; -242.820
596.560;   50.536; -501.093; -493.833
596.836;  195.353; -173.105;  -70.810
597.112;  322.653; -582.108; -437.805
597.388;  262.177;  -49.097;  -48.826
597.665;  116.287;  437.887;  530.203
597.941;  -58.310; -572.089; -658.839
598.217;   27.714; -323.110; -293.802
598.493;  248.598;   61.891; -204.804
598.769;  478.821; -175.100;  -50.819
599.045;  284.281; -490.108; -562.806
599.321;   47.500; -193.100; -261.820
599.597;  124.498; -355.109; -476.804
599.872;  464.416;  409.896;  429.187
600.148;  324.304;  -61.097; -172.826
600.424;  265.036;   91.893;  202.193
600.700;  220.588; -170.107; -280.807
600.976;  117.273; -442.097; -464.825
601.252;  220.869; -226.109; -272.803
601.527;  174.641; -833.104; -840.813
601.803;  146.259; -453.105; -404.812
602.079;  175.021; -124.100; -118.819
602.354;  519.496; -620.092; -531.835
602.630;  751.610; -140.113; -482.796
602.906; 2125.691; -910.101; -863.818
603.181; 6130.135; -627.119; -534.786
603.457; 5201.951;   98.903; -278.826
603.733;  763.869; -605.120; -626.783
604.008;  861.725; -245.106; -164.810
604.284; 2835.437; -636.101; -580.817
604.559; 2448.020;   -3.112;  -42.799
604.835;  443.628; -163.105; -225.810
605.110;  375.305; -732.099; -892.821
605.385;  640.639;  224.907;  267.167
605.661;  580.043; -625.095; -729.829
605.936; 1069.882; -664.108; -737.806
606.211;  892.301;  -17.103; -170.815
606.487;  184.449; -329.114; -376.794
606.762;   10.686; -791.119; -745.786
607.037;  -19.222; -501.105; -433.810
607.313;  -59.514; -589.096; -574.828
607.588;    0.325; -375.106; -137.810
607.863;   25.990;  -28.101; -143.818
608.138;  178.538;  513.890;  516.198
608.413;   20.509; -576.099; -592.822
608.688;   40.703; -203.108; -267.805
608.964;  181.219; -509.106; -218.809
609.239;  229.376; -107.105; -212.810
609.514;  243.558;  281.895;  240.188
609.789;  601.213; -187.104; -716.812
610.064;  803.560; -435.096; -609.827
610.339;  799.745; -855.109; -799.804
610.614; 1059.876; -131.100; -315.820
610.889;  592.109;  215.895;  107.188
611.163;   30.059; -407.104; -591.812
611.438;   70.125;   81.886; -167.794
611.713;   -3.038; -467.101; -499.817
611.988;   46.439; -144.101; -328.818
612.263;  -34.572; -771.102; -717.815
612.538;  206.159;  385.887;  251.204
612.812;  146.902; -832.100; -911.820
613.087;  118.865; -358.098; -338.823
613.362;  -60.886; -497.107; -557.807
613.637;   46.647;  261.897;  138.186
613.911;  -21.503; -256.092; -345.835
614.186;  110.812; -249.107; -292.807
614.460;  601.640; -842.081; -758.854
614.735;  703.889;  -55.087;  -17.843
615.010;  145.954;   43.912;  -82.841
615.284;  237.052;  360.892;  246.195
615.559;  329.895; -792.092; -955.835
615.833;  263.182;  -76.099;  -87.822
616.108;   -5.218; -225.090; -390.837
616.382;  132.740;  274.913;  402.156
616.656;  145.608; -241.090; -232.837
616.931;  456.133; -785.099; -700.822
617.205;  969.642; -973.104; -979.813
617.480;  888.705;  -91.125;    6.225
617.754;  136.202; -396.125; -128.774
618.028;    6.048; -369.129; -382.768
618.302;   68.076;   73.892;  -25.805
618.577;  -39.127; -371.103; -518.815
618.851;  -64.284; -399.109; -600.803
619.125;  -33.196; -335.134; -378.759
619.399;  -35.783; -244.104; -374.813
619.673;  -43.112; -330.115; -515.792
619.947;  -63.347; -333.114; -448.795
620.222;  -12.193; -198.110; -204.801
620.496;    4.317;  -47.121;  -96.782
620.770;   19.258; -187.122;  -93.781
621.044;  189.776;  323.895;  346.190
621.318;  691.870; -653.120; -614.783
621.592;  604.467; -430.121; -409.783
621.866;  313.021; -476.112; -572.799
622.140;   15.382; -207.116; -356.791
622.413;   65.850;  138.889;  112.200
622.687;  -53.363; -746.101; -492.817
622.961;   16.551; -130.108; -143.805
623.235;  -50.899; -633.111; -661.800
623.509; -104.492; -816.105; -848.811
623.783;   11.335;  -12.107;   48.193
624.056;   -3.954; -254.120; -280.783
624.330;   52.465;   63.888;   -3.797
624.604;   48.829; -271.116; -355.790
624.877;   54.812;  180.890;   26.198
625.151;   35.473; -249.114; -238.794
625.425;  -42.631; -150.103; -283.814
625.698;  -56.495; -367.119; -374.785
625.972;  -96.411; -799.110; -765.802
626.245;   77.406;  685.884;  484.210
626.519;  -51.550; -426.120; -340.784
626.792;  -26.937; -192.107; -380.807
627.066;  -90.974; -485.122; -662.779
627.339;  -89.940; -736.110; -663.802
627.613;   17.923;  351.880;  148.216
627.886;   60.016;  187.891; -612.803
628.160;  -12.706;  312.880; -161.783
628.433;  -79.617; -695.125; -703.775
628.706;  -87.500; -517.120; -615.784
628.979;   24.139;  296.876;  117.223
629.253;  -79.965; -785.119; -833.786
629.526;  324.867; -334.126; -253.772
629.799;  303.521; -641.123; -479.778
630.072;  142.025; -497.128; -516.769
630.346;  -79.819;-1115.116;-1080.790
630.619;  425.314; -467.107; -545.808
630.892;  571.677;  709.889;  593.200
631.165;  313.192;  790.896;  679.187
631.438;  -79.482;-1092.112;-1055.798
631.711;   70.424;  453.877;  257.221
631.984;  -58.424; -523.117; -624.789
632.257;  -61.802; -636.117; -681.789
632.530;  -49.920; -412.119; -433.785
632.803;   24.221; -109.115;    7.207
633.076;  -74.432; -360.123; -422.777
633.349;   11.729;  173.872;  121.231
633.622;  -41.296; -187.119; -240.785
633.895; -121.455; -903.120; -823.783
634.167;  -59.606; -496.126; -525.773
634.440;  -18.488;  -19.116; -137.792
634.713;   -5.091;  -22.119; -120.786
634.986;   79.018;  593.871;  453.233
635.258;  -77.181; -507.115; -597.793
635.531;   97.869;  742.882; -343.788
635.804;  -29.025; -303.117; -318.789
636.077;  -90.367; -830.116; -852.791
636.349;  -24.258; -586.115; -474.793
636.622;  379.167; 1695.874; 1392.228
636.894;  200.825; -474.120; -909.784
637.167;  130.461; -836.127; -789.771
637.439;   22.957; -278.128; -213.770
637.712;  -41.432; -312.126; -293.772
637.984;  -85.441; -635.116; -707.791
638.257;  380.418;  515.877;  488.222
638.529;  538.459; -881.125; -924.776
638.802;  247.324; -508.128; -449.769
639.074; -110.467; -927.122; -952.781
639.346; -121.380; -942.135; -930.757
639.619;    1.256;  -79.142; -319.744
639.891;   -6.099;  -83.122; -168.779
640.163;  -73.147; -689.122; -756.780
640.435;   34.480;  273.878;  103.220
640.708;   13.157;  -72.122; -132.780
640.980;  -29.291; -366.122; -362.781
641.252;  190.711;  -25.121;  -71.781
641.524; 1731.712;  580.879;  573.219
641.796; 1728.864;-1094.121; -907.782
642.068;  316.441; -191.121; -300.782
642.340;  -57.832; -486.121; -566.783
642.613;   51.495;  294.880;  323.217
642.885; -100.554; -787.120; -878.783
643.157;  -41.602; -810.120; -658.784
643.428;   51.525;  170.880;  218.216
643.700;  -58.823; -498.120; -425.784
643.972;  -36.821;  -16.119; -133.785
644.244;  -83.894; -474.119; -559.785
644.516;  -54.493; -250.119; -114.786
644.788;   68.709;  662.881;  548.214
645.060;  -29.814;  -12.119; -124.786
645.332;  -94.962; -525.118; -535.787
645.603;   32.990;  479.882;  342.213
645.875;  -75.283; -334.118; -369.787
646.147;  165.868; 1487.882; 1242.212
646.418;  -67.455; -931.117; -918.788
646.690;  108.347; -714.117; -715.789
646.962;   32.799; -413.117; -451.789
647.233;  -17.324;   15.883;   11.211
647.505; -105.748; -595.117; -475.790
647.776;   22.254;  328.884;  229.210
648.048;    2.631; -248.116; -418.790
648.320;  -79.142; -752.116; -679.791
648.591; -138.415;-1055.116; -958.791
648.862;  -91.388; -505.116; -577.792
649.134;   11.788;  115.885;  198.208
649.405;  -56.260; -661.115; -618.792
649.677;  -54.458; -475.115; -598.793
649.948;   -3.306; -181.115; -296.793
650.219;    3.146;  -37.115; -147.793
650.491;  -74.803; -431.114; -520.794
650.762; -117.301; -705.114; -731.794
651.033;  -83.349; -437.114; -424.795
651.304;  -90.097; -743.114; -728.795
651.576;  -69.795; -680.114; -645.795
651.847;  -33.043; -250.113; -140.796
652.118;  -24.392;  -32.113; -189.796
652.389;  -97.365; -639.113; -722.796
652.660;  -35.638; -147.113;  -89.797
652.931; -128.536; -897.112; -871.797
653.202;  -90.834; -382.112; -541.798
653.473;  -59.057; -633.112; -533.798
653.744;  150.694; -595.112; -590.798
654.015;  134.596; -356.112; -303.799
654.286;  -81.852; -642.111; -663.799
654.557;  -59.275; -586.111; -521.799
654.828; -157.073;-1114.111;-1088.800
655.099;  -70.872; -404.111; -291.800
655.370;  -96.595; -427.111; -543.801
655.641; -121.068; -656.110; -714.801
655.911; -102.591; -618.110; -638.801
656.182;   51.911;  437.890;  387.198
656.453;   88.163;  830.890;  746.198
656.724;  -69.586; -466.110; -426.802
656.994;  -78.034; -553.109; -568.803
657.265; -116.182; -862.109; -873.803
657.536;  -92.780; -500.109; -377.804
657.806; -100.278; -561.109; -593.804
658.077; -149.176; -866.109; -950.804
658.347;  -85.250; -523.108; -598.805
658.618; -116.523; -646.108; -694.805
658.888;  -22.171;  -41.108;  112.195
659.159;  -69.644; -432.108; -548.806
659.429;  -24.042; -292.108; -349.806
659.700;   14.359; -435.107; -390.807
659.970;   -5.439; -370.107; -359.807
660.241;   -3.512; -754.107; -921.807
660.511;  468.865; -147.107; -174.808
660.781;   67.267; -793.106; -748.808
661.052;  -47.931; -222.106; -381.808
661.322;  -11.330;   21.894;   -9.809
661.592;   25.947;  257.894;  148.191
661.862;  -89.376; -369.106; -382.810
662.133;  -86.199; -551.105; -502.810
662.403; -122.122; -770.105; -676.810
662.673;  -52.645; -256.105; -213.811
662.943;  -98.944; -612.105; -551.811
663.213;   -4.842;  -85.105;  -81.811
663.483;  -77.940; -593.104; -568.812
663.753;  -32.638; -194.104; -152.812
664.023;   -6.086;   68.896;  -32.813
664.293;  -52.260; -319.104; -126.813
664.563; -114.433; -694.104; -648.813
664.833; -114.381; -743.103; -608.814
665.103; -112.679; -730.103; -793.814
665.373; -111.152; -766.103; -806.814
665.643;  -84.750; -863.103; -918.815
665.913;   15.576; -534.103; -714.815
666.182;  121.703; -685.102; -719.816
666.452;  262.530;  -22.102;  -89.816
666.722;  -27.168; -724.102; -784.816
666.992; -126.641; -948.102; -921.817
667.261;  -90.864; -824.102; -808.817
667.531;  215.012;  134.899;   45.183
667.801;  518.239; -440.101; -412.818
668.070;  247.466;  714.899;  697.182
668.340;  -95.782; -883.101; -840.819
668.609;   98.970;  588.900;  301.181
668.879;  -85.954; -490.100; -558.819
669.149;  -66.077; -539.100; -516.820
669.418; -117.150; -698.100; -726.820
669.688;  -33.748; -482.100; -666.820
669.957;   57.854; -423.099; -546.821
670.226;  -17.919; -268.099; -331.821
670.496; -103.593; -431.099; -635.822
670.765;  -72.891; -418.099; -501.822
671.034; -122.014; -872.099; -828.822
671.304;   -8.712;   55.902; -111.823
671.573; -150.310;-1085.098; -957.823
671.842;   80.366; -380.098; -294.823
672.112;   13.068; -692.098; -586.824
672.381;    1.745; -239.098; -214.824
672.650; -132.228;-1005.097;-1021.825
672.919;  -74.826; -631.097; -507.825
673.188; -106.824; -681.097; -878.825
673.457; -141.198;-1101.097;-1143.826
673.726;  -83.496; -579.096; -646.826
673.995;  -23.044; -533.096; -479.826
674.265;  -26.817; -263.096; -333.827
674.534;   11.810; -183.096; -235.827
674.802;    5.462; -618.096; -703.828
675.071;  915.538; -886.095; -801.828
675.340; 3549.415; -464.095; -339.828
675.609; 1193.642;  103.905;   82.171
675.878;   81.169; -949.095; -893.829
676.147;   32.471;  -26.095;   -8.829
676.416;   68.597; -210.094; -294.830
676.685;  670.549; 1000.906; -622.830
676.953;   96.601; -603.094; -452.831
677.222;  -12.522; -193.094; -273.831
677.491;  -33.470;  -24.094; -127.831
677.759;   -0.418;   11.907;  172.168
678.028;  -31.167; -279.093; -222.832
678.297;   -1.190;   71.907;  197.168
678.565; -147.988; -898.093; -944.833
678.834;  -46.086; -311.093; -268.833
679.102;  -77.409; -411.092; -391.834
679.371; -137.257; -898.092; -727.834
679.639; -143.656; -797.092; -786.834
679.908; -114.954; -794.092; -724.835
680.176; -158.102; -895.091; -941.835
680.445;  -76.825; -346.091; -352.835
680.713;  -29.773;  -58.091;  -23.836
680.982;  -90.772; -523.091; -525.836
681.250;  -95.870; -578.091; -507.837
681.518; -103.193; -534.090; -751.837
681.787;  -15.191; -204.090; -167.837
682.055;  -54.164; -490.090; -422.838
682.323; -153.512; -993.090; -992.838
682.591;   25.864; -216.090; -538.838
682.859;   92.516;    9.911;  -35.839
683.128;   17.418;  232.911;  497.161
683.396; -160.730;-1102.089;-1122.840
683.664;  -33.528; -241.089;   21.160
683.932;   -0.151;  144.911;  -76.840
684.200;  -80.125; -576.088; -320.841
684.468;  -27.573;  -73.088; -124.841
684.736;  -35.421; -214.088; -175.841
685.004; -119.419;-1024.088; -982.842
685.272;  -42.667; -880.088; -774.842
685.540;  -79.316; -499.087; -557.843
685.808;  -80.489; -651.087; -682.843
686.076; -112.187; -894.087; -969.843
686.343;  -55.010; -601.087; -815.844
686.611;   37.242; -195.087; -224.844
686.879;  422.194; -530.086; -553.844
687.147; 3048.220; -483.086; -480.845
687.414;  863.197;  -12.086; -169.845
687.682;   -9.951; -658.086; -757.846
687.950;  279.426;  259.915;  263.154
688.217;   -0.147; -792.085; -760.846
688.485;    1.680; -632.085; -636.847
688.753;  473.956;  -11.085; -102.847
689.020;  143.308; -820.085; -851.847
689.288;  -90.115; -853.084; -787.848
689.555;  -36.863; -195.084; -148.848
689.823;  -53.086; -241.084; -345.849
690.090;  -63.510; -546.084; -651.849
690.358; -153.208; -877.084; -897.849
690.625;   -1.631;  120.917;   45.150
690.892;  -88.654; -403.083; -369.850
691.160;  -10.052;   72.917;  -35.850
691.427;   -0.750;  141.917;  130.149
691.694; -122.074; -855.083; -929.851
691.962; -156.872;-1177.082;-1060.852
692.229;   14.055;  127.918;   56.148
692.496;   63.982;  130.918;  -49.852
692.763;   12.384; -164.082; -201.853
693.031;  -67.815; -739.082; -716.853
693.298;  -42.288; -509.081; -368.853
693.565;  274.864; -155.081; -163.854
693.832; 1187.566;   -5.081;   -9.854
694.099;  126.518; -643.081; -642.855
694.366;  -55.405; -882.081; -896.855
694.633;  -59.454; -920.080; -633.855
694.900;  734.873; 4367.920; -114.856
695.167;  389.775; -214.080; -380.856
695.434;  103.852; -646.080; -623.856
695.701;  200.829;  121.921;  -61.857
695.968;  454.081; -365.079; -361.857
696.234;  967.832; -415.079; -646.858
696.501;10305.634; -776.079; -614.858
696.768; 5212.436; -554.079; -617.858
697.035;  308.088; -632.078; -667.859
697.302;   41.115; -448.078; -552.859
697.568;    1.566; -458.078; -497.859
697.835;  -47.682; -683.078; -624.860
698.102;  -11.105; -498.078; -407.860
698.368;   73.097;  384.923;  396.139
698.635;  -26.101;  -47.077; -424.861
698.901;  -18.424; -240.077; -348.861
699.168;   52.177; -534.077; -456.862
699.435;   71.279;  -72.077;  -13.862
699.701; -103.669; -868.076; -764.862
699.968;    8.858;  144.924; -441.863
700.234;  -86.915; -783.076; -822.863
700.500;  -49.013; -448.076; -539.864
700.767;    1.563;   -1.075;   26.136
701.033; -132.260;-1015.075; -963.864
701.299;  -48.933; -450.075; -483.865
701.566;  116.619;  950.925;  763.135
701.832;   37.071;  -31.075;  -76.865
702.098;  -99.453;-1054.074;-1034.866
702.365;  -80.076;-1098.074;-1030.866
702.631;  -41.724;-1038.074;-1063.867
702.897; 1306.228; -765.074; -676.867
703.163; 2159.155;  348.926;  254.133
703.429;  157.257; -256.073; -273.868
703.695;  -22.992; -796.073; -792.868
703.961;   28.560; -214.073; -210.868
704.227;  -45.088; -630.073; -725.869
704.493;  143.014;  613.927;  510.131
704.759;  -16.834; -565.072; -540.870
705.025;   42.668; -203.072; -194.870
705.291;  -17.731; -666.072; -562.870
705.557;  208.996;  719.928;   34.129
705.823;   32.273; -742.072; -694.871
706.089;  146.200; -307.071; -326.871
706.355;  361.852; -315.071; -244.872
706.620; 5703.953; -776.071; -729.872
706.886; 7935.505; -309.071; -362.873
707.152;  727.132; -818.070; -973.873
707.418;  -15.641;-1153.070;-1186.873
707.683;    3.986; -550.070; -530.874
707.949;  -39.012; -547.070; -578.874
708.215;    7.814; -129.070; -207.874
708.480;  -30.334; -520.069; -420.875
708.746;  108.243;   68.931;   28.125
709.011;  -59.455; -578.069; -612.876
709.277;  -69.203; -538.069; -543.876
709.542;  -46.752; -428.069; -387.876
709.808;   16.225;  -59.068;   89.123
710.073;  -82.273; -577.068; -695.877
710.339;  -31.321; -242.068; -228.877
710.604;   54.681; -780.068; -845.878
710.869;  309.483; -277.068; -366.878
711.135;  -56.866; -715.067; -628.879
711.400;  -74.589; -507.067; -608.879
711.665;  -61.712; -404.067; -479.879
711.931;  -78.585; -661.067; -677.880
712.196; -120.158; -876.067; -954.880
712.461;  103.269; -402.066; -490.880
712.726;  122.545; -727.066; -771.881
712.991;  -79.778; -647.066; -664.881
713.256;  -44.201; -350.066; -332.882
713.521;  -64.624; -417.065; -381.882
713.787;  -59.597; -454.065; -472.882
714.052;  -28.046; -214.065; -400.883
714.317;  -89.319;-1045.065; -981.883
714.581; 1050.858; -374.065; -268.883
714.846; 1416.185; -822.064; -888.884
715.111;  152.287;  261.936;  257.116
715.376;  -21.886;  -86.064; -223.885
715.641;    4.690; -365.064; -367.885
715.906;  268.092;   15.936; -551.885
716.171;  126.094;  221.937;  209.114
716.436;   18.771;  -78.063; -104.886
716.700;  -94.227; -818.063; -692.886
716.965; -125.825; -794.063; -807.887
717.230;  -69.999; -339.063; -392.887
717.494;  -35.722;  -40.062; -134.888
717.759;  -97.395; -784.062; -640.888
718.024;    1.507;  269.938;  250.112
718.288;   84.959;  685.938;  395.111
718.553; -142.790; -803.062; -977.889
718.817; -126.688; -883.061; -899.889
719.082;  -28.736; -115.061; -125.890
719.346; -122.884;-1000.061; -947.890
719.611;  -47.732; -300.061; -255.891
719.875;  -95.405; -568.060; -537.891
720.140;  -61.254; -453.060; -603.891
720.404;   39.648; -136.060; -249.892
720.668;  779.375; -475.060; -411.892
720.933;  313.902;  146.940;  137.108
721.197; -105.996; -667.059; -600.893
721.461; -123.044; -851.059; -826.893
721.725;  -27.193;  -21.059; -250.894
721.990;  -55.916; -284.059; -204.894
722.254;  -26.064;  -26.059; -108.894
722.518;  -64.962; -286.058; -442.895
722.782;  -97.610; -743.058; -594.895
723.046;  136.391;  614.942;  570.105
723.310;   17.218;  374.942;  210.104
723.574;  -93.055; -654.058; -614.896
723.838; -108.728; -576.057; -642.897
724.102;  -39.351; -226.057; -239.897
724.366; -137.124;-1032.057; -978.897
724.630; -104.323; -749.057; -571.898
724.894;  -77.421; -722.057; -514.898
725.158;    1.681;   38.944; -295.898
725.422;  -54.917; -394.056; -327.899
725.685;  -56.440; -441.056; -349.899
725.949;  -88.638; -566.056; -519.900
726.213;  -64.737; -732.056; -811.900
726.477;  153.965;-1020.055; -933.900
726.740;  156.092; -274.055; -104.901
727.004;  315.994; -384.055; -510.901
727.268; 3339.971; -442.055; -400.901
727.531;  920.697; -961.055; -775.902
727.795;  -31.676; -713.054; -673.902
728.059;  -57.974; -552.054; -557.903
728.322;  -59.922; -841.054; -669.903
728.586;    4.905; -692.054; -701.903
728.849;  -79.243; -695.053; -756.904
729.112; -117.617; -812.053; -912.904
729.376; -105.890; -959.053; -905.904
729.639;  -69.013; -536.053; -536.905
729.903;  -98.011; -733.053; -699.905
730.166;  -48.109; -437.052; -399.906
730.429;  -32.633; -317.052; -468.906
730.693;  -64.706; -355.052; -894.906
730.956;  215.971;  810.948;  651.093
731.219;  675.723; -310.052; -103.907
731.482;  106.350;-1003.051; -894.907
731.745;   81.602; -794.051; -935.908
732.009;   31.153;  -30.051;   50.092
732.272; -109.220; -904.051; -771.909
732.535;  -35.343; -300.051; -310.909
732.798; -159.641;-1083.050;-1166.909
733.061;  -56.014; -430.050; -456.910
733.324;   11.838;   31.950; -180.910
733.587;   66.664;  290.950;  365.090
733.850;  -74.759; -973.049;-1050.911
734.113;   40.818;   33.951;   32.089
734.376;   -5.780; -328.049; -447.912
734.639;  213.422; 1188.951; 1011.088
734.901;   57.848; -180.049; -402.912
735.164;  471.850; -883.048; -837.913
735.427; 1248.827; -166.048; -355.913
735.690;  135.954; -205.048; -234.913
735.952;  -32.319; -923.048; -925.914
736.215;  -20.217;-1113.048;-1009.914
736.478;   31.859; -771.047; -774.915
736.740;  212.736;   33.953;  129.085
737.003;  646.963; -658.047; -672.915
737.266; 3806.715;  -94.047;   46.084
737.528;  421.142; -682.047; -660.916
737.791;  335.044; -316.046; -327.916
738.053;  795.545;  465.954;  649.083
738.316;10817.072; -162.046; -136.917
738.578; 7591.124; -770.046; -736.918
738.841;  437.276; -382.046; -446.918
739.103;  173.703; -875.045; -777.918
739.365;  481.529;   79.955;  -69.919
739.628;    6.031; -884.045; -805.919
739.890;  -19.142; -758.045; -710.919
740.152;  -39.465; -692.044; -754.920
740.414;   -5.238; -408.044; -359.920
740.677;  -45.986; -785.044; -634.921
740.939;  -47.735; -587.044; -487.921
741.201;  250.892; -432.044; -572.921
741.463;   34.544; -689.043; -745.922
741.725;   10.321;  -21.043; -199.922
741.987;   45.948;  220.957;  116.078
742.249;  -14.850; -751.043; -859.923
742.511;  198.651; -703.043; -794.923
742.773;    3.828; -546.042; -546.924
743.035;  143.055;  796.958;  533.076
743.297;  -41.243; -963.042;-1013.924
743.559;  711.284; -278.042; -262.925
743.821;   49.985; -735.042; -744.925
744.083;   16.437;  -44.041; -149.925
744.345;  -90.761; -869.041; -892.926
744.607;   34.491;   75.959;  122.074
744.868;  -47.257; -490.041; -554.927
745.130; -107.880; -994.041;-1008.927
745.392;   33.421;   -1.040;  -44.927
745.653;  -14.027; -411.040; -378.928
745.915;  148.025;  896.960;  631.072
746.177;   59.852;   35.960;  -43.928
746.438;  -19.471; -428.040; -543.929
746.700;  -40.744; -947.039; -988.929
746.961;    8.757; -659.039; -740.930
747.223;  144.959; -190.039;  -74.930
747.484;   79.036; -391.039; -471.930
747.746;  150.038;  -23.038; -106.931
748.007;  108.340; -647.038; -689.931
748.269;  292.566; -468.038; -440.931
748.530;  435.218; -852.038; -638.932
748.791;  248.195; -354.038; -420.932
749.053;  428.497;  286.963;  163.067
749.314;  463.849; -236.037; -169.933
749.575;  485.026; -945.037; -905.933
749.836;  827.927; -217.037;   86.066
750.098; 2342.104;  -60.037;  -21.934
750.359;35298.806;  414.964;  555.066
750.620; 9028.358; -121.036; -220.935
750.881;  982.435; -585.036; -513.935
751.142; 1286.386; -950.036; -938.936
751.403;16440.088; -789.036; -705.936
751.664; 7274.515;-1034.035; -999.936
751.925;  499.192; -175.035; -262.937
752.186;  278.569; -298.035; -278.937
752.447;  148.196; -590.035; -445.937
752.708;   37.372; -532.035; -648.938
752.969;   16.299; -566.034; -576.938
753.230;  -13.749; -777.034; -672.939
753.491;    0.853; -650.034; -631.939
753.751;   70.705;  109.966;   19.061
754.012;  103.407;  258.967;  181.060
754.273;   43.758; -174.033;  -71.940
754.534;    4.385; -487.033; -580.940
754.794; -102.338; -926.033; -911.941
755.055;  159.314; 1051.967;  881.059
755.316;  -46.084; -700.032; -566.942
755.576;  -21.133; -606.032; -576.942
755.837;  -54.956; -527.032; -695.942
756.097;  -28.279; -530.032; -564.943
756.358;  -77.427; -725.032; -770.943
756.618;  -50.225; -705.031; -641.943
756.879;   -2.623; -254.031; -349.944
757.139; -124.672;-1098.031;-1116.944
757.400;  -58.720; -538.031; -553.945
757.660;  -15.543; -365.031; -401.945
757.920;   19.984; -266.030; -228.945
758.181;  -19.264; -468.030; -351.946
758.441;  -93.512; -870.030; -809.946
758.701;   -4.661; -308.030; -215.946
758.961;  -21.134; -220.030; -278.947
759.222;  -55.107; -574.029; -502.947
759.482;  -88.180; -683.029; -723.948
759.742;  -73.478; -706.029; -547.948
760.002;    5.673;  -83.029; -143.948
760.262;   25.350;   50.972;  182.051
760.522;  -50.223; -498.028; -574.949
760.782;  -31.221; -738.028; -612.949
761.042;  -49.544; -618.028; -573.950
761.302;   50.983;   55.972;  -18.950
761.562;   50.309; -164.027; -154.951
761.822;   85.786; -710.027; -551.951
762.082;  -46.712;-1104.027;-1093.951
762.342;   60.165; -328.027; -403.952
762.601;   73.392; -567.027; -506.952
762.861;  342.494; -281.026; -207.952
763.121;  400.695; -406.026; -411.953
763.381; 7336.672; -499.026; -485.953
763.640; 8040.399; -139.026; -307.954
763.900;  358.401; -242.026; -203.954
764.160;   75.878; -458.025; -491.954
764.419;   -5.196; -726.025; -782.955
764.679;  -70.469; -795.025; -726.955
764.939;   -9.142; -124.025; -210.955
765.198;  -69.765; -608.025; -563.956
765.458;  -61.688; -710.024; -612.956
765.717;  -96.561; -454.024; -590.957
765.976;  -56.360; -428.024; -411.957
766.236;  -77.283; -475.024; -610.957
766.495;   25.269;  260.977;   73.042
766.755;  -82.129;-1090.023; -987.958
767.014;    4.123; -594.023; -665.958
767.273;  -47.951; -373.023; -397.959
767.533;  -35.549; -228.023; -307.959
767.792;  -32.322; -151.022; -188.960
768.051;  -53.270; -228.022; -276.960
768.310;  -74.368; -546.022; -650.960
768.569;    2.184; -161.022;    4.039
768.828;  -31.240; -285.022; -363.961
769.088; -118.738;-1050.021; -942.961
769.347;  -85.511; -755.021; -599.962
769.606;  -94.109; -876.021; -857.962
769.865; -126.707;-1016.021;-1033.963
770.124;    1.645; -411.021; -336.963
770.383;  -64.229; -778.020; -910.963
770.641;   14.323; -398.020; -400.964
770.900;  -64.175; -953.020; -846.964
771.159;  -44.923; -851.020; -951.964
771.418;   -0.071; -917.020; -779.965
771.677;  120.305; -224.019; -293.965
771.936;  152.657; -794.019; -865.966
772.194; 2264.134; -465.019; -437.966
772.453;11234.536; -213.019; -391.966
772.712;  785.113;  416.982;  329.033
772.970;  128.040;   32.982;   63.033
773.229;   91.391;  -22.018;  102.033
773.488;  -90.332; -814.018; -770.968
773.746;   56.895;  296.982;  335.032
774.005;    2.997;  190.983;  -22.969
774.263;   16.124;  243.983;  177.031
774.522;  -42.349; -422.017; -548.969
774.780;  -79.798; -484.017; -417.970
775.039;  -81.771; -551.017; -531.970
775.297;  -25.694; -135.016; -351.970
775.555; -111.292; -489.016; -612.971
775.814; -124.765; -618.016; -570.971
776.072; -122.889; -749.016; -740.971
776.330;  -87.237; -630.016; -520.972
776.589; -133.485; -703.015; -721.972
776.847; -115.208; -645.015; -624.973
777.105; -165.206;-1016.015;-1032.973
777.363;  -85.479; -459.015; -454.973
777.621; -130.328; -660.015; -717.974
777.879;  -20.451;  -42.014;   32.026
778.138;  -88.124; -554.014; -717.974
778.396;  -91.697; -585.014; -526.975
778.654; -160.845;-1015.014; -970.975
778.912;  -51.693; -269.014; -371.976
779.170; -110.292; -880.013; -803.976
779.427; -146.340; -922.013; -897.976
779.685; -133.438; -880.013; -832.977
779.943;  -88.086; -654.013; -593.977
780.201; -154.984; -964.012; -883.978
780.459; -110.233; -651.012; -610.978
780.717;  -73.531; -440.012; -390.978
780.974;  -78.179; -449.012; -490.979
781.232;  -82.077; -358.012; -338.979
781.490;  -63.825; -551.011; -472.979
781.747;  -86.473; -555.011; -476.980
782.005;   30.778;  462.989;  254.020
782.263; -168.045; -542.011;-1004.981
782.520;  -73.293; -326.011; -501.981
782.778; -168.791;-1013.010;-1051.981
783.035; -159.464; -962.010; -938.982
783.293;  -59.087; -248.010; -206.982
783.550;  -37.211; -134.010; -198.982
783.808; -135.659; -764.010; -776.983
784.065; -155.982; -745.009; -874.983
784.322;  -30.205;   25.991;  -86.984
784.580; -138.778; -915.009; -771.984
784.837;  -92.452; -392.009; -466.984
785.094; -134.650; -783.009; -762.985
785.352;  -77.348; -304.008; -404.985
785.609;  -93.046; -934.008; -839.985
785.866;  -82.094; -345.008; -401.986
786.123;  -61.042; -639.008; -583.986
786.380;  -85.641; -665.008; -604.987
786.637;  -44.739; -225.007; -380.987
786.895;  -23.037; -456.007; -543.987
787.152;  -43.485; -135.007; -267.988
787.409;  -50.033; -123.007; -225.988
787.666;  -82.332; -299.006; -378.988
787.923; -116.005; -616.006; -695.989
788.179;  -96.753; -551.006; -584.989
788.436; -108.351; -585.006; -585.990
788.693;  -34.399;  -92.006;  -87.990
788.950;  132.378; -125.005; -112.990
789.207;  190.954; -381.005; -372.991
789.464;  -38.769; -161.005; -301.991
789.720;    3.883;  150.995;  110.009
789.977; -153.915;-1003.005; -671.992
790.234;  -33.288;   44.996;  -66.992
790.490; -157.736; -884.004;-1031.993
790.747;  -32.010;  -85.004;   22.007
791.004;  -32.883; -426.004; -348.993
791.260;  -65.656; -430.004; -560.994
791.517; -103.754; -843.003; -788.994
791.773;  -37.652; -379.003; -342.994
792.030; -108.701; -596.003; -660.995
792.286;  -87.399; -686.003; -636.995
792.543;  -19.697;  -74.002; -159.995
792.799;  -44.095; -584.002; -382.996
793.055; -156.243;-1179.002;-1210.996
793.312;  -89.691; -827.002; -816.997
793.568;  -65.165; -746.002; -599.997
793.824;   15.587; -226.001; -284.997
794.081;   -0.561; -447.001; -508.998
794.337;   71.066; -664.001; -561.998
794.593; 1300.593; -319.001; -271.999
794.849; 6390.570; -746.001; -772.999
795.105;  322.396; -270.000; -261.999
795.361;    5.923; -490.000; -457.000
795.617;  -67.550; -875.000; -945.000
795.873;  -44.550; -360.000; -407.000
796.129;  -36.400; -368.000; -306.000
796.385;  -14.625; -124.000; -156.000
796.641;   60.575;  412.000;  550.000
796.897;  -66.800; -666.000; -635.000
797.153;   72.475;  453.000;  357.000
797.409;  -91.200; -785.000; -868.000
797.665;  -91.225; -625.000; -732.000
797.921;  -71.725; -775.000; -762.000
798.176;  -52.475; -744.000; -747.000
798.432;  -49.175; -824.000; -596.000
798.688;  -73.725;-1174.000;-1078.000
798.943;   77.375; -165.000; -147.000
799.199;    9.400;-1005.000; -959.000
799.455;  240.300;  369.000;  316.000
799.710;  130.850; -813.000; -380.000
799.966;  303.750; -162.000; -160.000
800.221;  476.075; -638.000; -721.000
800.477;10497.400; -743.000; -710.000
800.732; 9307.650; -773.000; -800.000
800.988;  656.150;  205.000;  -19.000
801.243; 1900.250; -454.000; -344.000
801.498; 8260.175; -814.000; -739.000
801.754;  470.600; -289.000; -163.000
802.009;  111.400; -257.000; -335.000
802.264;  -47.950; -967.000;-1033.000
802.520;   32.925;  222.000;   -3.000
802.775;  -39.925; -524.000; -359.000
803.030;   60.350;  395.000;  356.000
803.285; -114.800; -840.000; -903.000
803.540;  -57.425; -686.000; -699.000
803.795;  -46.500; -648.000; -583.000
804.051;  -30.475; -279.000; -346.000
804.306;   23.875;  168.000;  128.000
804.561;  143.625;  451.000;  362.000
804.816;  143.050;  714.000;  861.000
805.071;   15.450; -185.000; -280.000
805.325;  200.050; -257.000; -427.000
805.580; -103.025; -841.000; -877.000
805.835;  -26.000; -204.000; -297.000
806.090;  -70.975; -760.000; -676.000
806.345;  -22.675; -344.000; -264.000
806.600;  -20.000; -549.000; -632.000
806.854;  -37.775; -408.000; -538.000
807.109;    1.850; -493.000; -577.000
807.364;    3.325; -407.000; -328.000
807.618;   -8.175; -415.000; -381.000
807.873;   45.000; -470.000; -494.000
808.128;   87.450; -257.000; -518.000
808.382;   87.400; -224.000; -332.000
808.637;   65.875; -440.000; -511.000
808.891;  175.300; -257.000; -180.000
809.146;   97.975; -902.000; -794.000
809.400;  252.375; -848.000; -923.000
809.654;  329.250; -779.000; -551.000
809.909;  478.025; -841.000; -927.000
810.163; 6289.000; -813.000; -651.000
810.418;16450.600; -940.000; -861.000
810.672; 1037.250; -685.000; -690.000
810.926;  711.950; -993.000; -973.000
811.180; 1407.500; -439.000; -372.000
811.434;31876.625;  240.000;  135.000
811.689;12972.800; -231.000; -365.000
811.943;  619.375; -936.000; -953.000
812.197;  314.225; -893.000; -671.000
812.451;  124.425; -379.000; -514.000
812.705;   -6.250; -809.000; -619.000
812.959;   -0.600; -263.000; -388.000
813.213;   20.325; -283.000; -209.000
813.467;   63.475;  470.000;  253.000
813.721;  -94.250; -764.000; -792.000
813.975; -113.450; -826.000; -877.000
814.229;   47.250;  430.000;  353.000
814.482;  -73.175; -517.000; -566.000
814.736; -104.750; -766.000; -744.000
814.990; -126.425; -779.000; -872.000
815.244;  -45.525; -228.000; -285.000
815.497;  -94.125; -636.000; -601.000
815.751;  -11.750; -141.000;   82.000
816.005;  -85.375; -470.000; -586.000
816.258;  -55.950; -510.000; -363.000
816.512; -112.075; -693.000; -610.000
816.766;    8.825;  121.000;  157.000
817.019;   16.100;  148.000;  149.000
817.273; -110.825;-1000.000; -802.000
817.526;  -24.700; -206.000; -173.000
817.779;  -51.425;-1049.000; -960.000
818.033;  -72.450; -693.000; -807.000
818.286; -105.750; -725.000; -792.000
818.540;  -72.700; -403.000; -403.000
818.793;  -68.875; -402.000; -489.000
819.046;  -97.600; -582.000; -520.000
819.299;  -41.225; -157.000; -166.000
819.553; -118.100; -552.000; -592.000
819.806; -149.300;-1016.000; -838.000
820.059;  -52.450; -334.000; -354.000
820.312;   16.775;  152.000;  185.000
820.565;  -22.850;  110.000;  -27.000
820.818;  -37.425;  -59.000; -173.000
821.071; -160.400;-1041.000; -957.000
821.324;  -97.150; -536.000; -540.000
821.577;  -99.825; -457.000; -483.000
821.830;  -66.950; -270.000; -172.000
822.083; -128.850; -733.000; -288.000
822.336;  -42.575; -261.000; -167.000
822.589; -130.725; -805.000; -688.000
822.842; -139.725; -875.000; -770.000
823.094; -173.600;-1076.000;-1114.000
823.347; -129.050; -925.000; -729.000
823.600;    8.850;  402.000;  187.000
823.853;  -53.825; -311.000; -267.000
824.105;  -66.400; -331.000; -575.000
824.358; -100.850; -617.000; -716.000
824.611;   26.075;  234.000;   40.000
824.863;  -37.100; -612.000; -591.000
825.116;   46.300;  -33.000;   27.000
825.368;   60.425; -366.000; -372.000
825.621;  156.050; -186.000; -240.000
825.873;   93.800; -704.000; -737.000
826.126;  580.625; -669.000; -641.000
826.378;11417.800; -389.000; -505.000
826.630; 2840.950; -890.000; -898.000
826.883;   40.075; -754.000; -693.000
827.135;   39.825; -279.000; -270.000
827.387; -107.175; -893.000; -839.000
827.639;  -37.275;  -86.000;   32.000
827.892; -109.775; -742.000; -582.000
828.144; -149.700; -848.000; -804.000
828.396;  -34.750;  104.000;  -80.000
828.648; -107.550; -440.000; -333.000
828.900; -140.600; -702.000; -795.000
829.152; -119.750; -684.000; -683.000
829.404;  -58.650; -215.000; -267.000
829.656;  -43.575;  321.000;  214.000
829.908;  -19.075;  393.000;  229.000
830.160; -156.175;-1064.000;-1047.000
830.412;  -97.775; -481.000; -430.000
830.664; -124.375; -557.000; -665.000
830.916;  -76.125; -268.000; -206.000
831.167; -178.825;-1073.000; -951.000
831.419; -105.825; -623.000; -566.000
831.671; -141.925; -764.000; -809.000
831.923;  -90.125; -311.000; -447.000
832.174;  -79.575; -273.000; -331.000
832.426; -108.875; -493.000; -582.000
832.678; -189.150;-1043.000;-1091.000
832.929; -156.000; -947.000; -935.000
833.181;  -64.825; -575.000; -677.000
833.432;  -44.325;  -59.000; -186.000
833.684;  -11.150;  112.000;  -27.000
833.935;  -97.650; -610.000; -566.000
834.187; -132.600; -829.000; -823.000
834.438;  -33.075;  -58.000;  -25.000
834.689;  -46.025; -255.000; -123.000
834.941;  -43.075; -343.000; -244.000
835.192;  -96.400; -590.000; -533.000
835.443;  -99.200; -419.000; -506.000
835.695;  -16.050;  138.000;  -16.000
835.946;  -93.325; -608.000; -378.000
836.197;  -99.425; -599.000; -622.000
836.448;  -87.875; -528.000; -395.000
836.699;  -67.825; -253.000; -341.000
836.950;   -6.225;   72.000;    7.000
837.201; -149.925;-1003.000; -987.000
837.452;  -43.025; -356.000; -170.000
837.703; -111.275; -791.000; -737.000
837.954;  -34.675; -205.000; -365.000
838.205;  -80.800;-1029.000;-1008.000
838.456;  151.200; -196.000; -282.000
838.707;    1.125; -423.000; -519.000
838.958;    7.900; -634.000; -647.000
839.209;  253.575;   18.000;   40.000
839.460;  110.850; -439.000; -201.000
839.710;  154.200; -135.000; -297.000
839.961;  417.250;  730.000;  612.000
840.212;  336.750; -382.000; -497.000
840.462; 1123.600; -328.000; -277.000
840.713;17692.750; -571.000; -536.000
840.964; 7206.750;  -62.000; -143.000
841.214;  495.600; -384.000; -624.000
841.465;  527.800; -214.000; -141.000
841.715;  454.750; -417.000; -380.000
841.966;  631.650; -746.000; -685.000
842.216; 8486.275; -330.000; -431.000
842.466;32812.025; -169.000; -313.000
842.717; 1819.125; -964.000; -952.000
842.967;  299.775; -635.000; -641.000
843.217;  252.275;   20.000;   28.000
843.468;   61.125; -104.000; -132.000
843.718;  -45.500; -718.000; -726.000
843.968;  -95.600; -837.000; -765.000
844.218;   11.775; -315.000; -262.000
844.469;  -38.725; -577.000; -561.000
844.719; -109.450; -537.000; -682.000
844.969;  -88.750; -550.000; -580.000
845.219; -138.925; -814.000; -862.000
845.469;  -67.350; -392.000; -342.000
845.719; -142.725; -792.000; -884.000
845.969;   -8.375;  119.000;  174.000
846.219; -122.525; -738.000; -720.000
846.469;   13.725;  464.000;  432.000
846.718;  -49.125; -115.000;   31.000
846.968; -134.125; -827.000; -827.000
847.218;  -74.125; -224.000; -371.000
847.468;    0.825; -586.000; -555.000
847.718; -158.300; -827.000; -798.000
847.967; -131.450; -826.000; -915.000
848.217;  -84.300; -449.000; -569.000
848.467;  -60.525; -405.000; -376.000
848.716; -114.825; -708.000; -725.000
848.966;   -5.225; -372.000; -358.000
849.215;  -66.700; -428.000; -419.000
849.465;  -85.850; -785.000; -615.000
849.714; -139.925;-1132.000;-1150.000
849.964;  -60.050; -551.000; -613.000
850.213;  -31.625; -393.000; -355.000
850.463;   71.050;  137.000;  340.000
850.712;   -9.325; -542.000; -567.000
850.961;   31.875; -739.000; -678.000
851.211;   91.600; -513.000; -504.000
851.460;  171.675; -635.000; -650.000
851.709;  553.650;  -25.000;   18.000
851.958;10224.475; -912.000; -750.000
852.208;12738.775; -859.000; -879.000
852.457;  469.225; -181.000;  -13.000
852.706;   75.975; -791.000; -823.000
852.955;   20.325; -507.000; -528.000
853.204;  -84.150; -521.000; -461.000
853.453;  -67.200; -418.000; -458.000
853.702; -133.400; -660.000; -750.000
853.951;  -97.700; -532.000; -520.000
854.200; -100.250; -613.000; -562.000
854.449; -119.350; -695.000; -661.000
854.698; -103.000; -340.000; -279.000
854.946;  -72.350; -181.000; -284.000
855.195; -149.725; -843.000; -868.000
855.444;  -95.575; -395.000; -420.000
855.693; -110.550; -345.000; -432.000
855.941; -104.700; -387.000; -516.000
856.190;  -59.150; -256.000; -382.000
856.439; -120.425; -652.000; -703.000
856.687;  -49.325;  -99.000;  -72.000
856.936; -110.975; -621.000; -323.000
857.184; -183.400;-1067.000;-1020.000
857.433;  -85.250; -423.000; -512.000
857.681; -168.525; -989.000; -953.000
857.930;  -64.200; -282.000; -433.000
858.178; -166.475; -856.000; -929.000
858.427; -148.075; -802.000; -781.000
858.675; -122.900; -377.000; -544.000
858.923; -122.350; -527.000; -819.000
859.172; -181.500;-1094.000;-1070.000
859.420;  -84.225; -339.000; -239.000
859.668; -131.675; -624.000; -628.000
859.916;  -29.275;  109.000;  115.000
860.164; -113.675; -699.000; -603.000
860.413;  241.675; -878.000; -696.000
860.661;  205.800; -709.000; -577.000
860.909;  -77.150; -339.000; -325.000
861.157;  -68.775; -277.000; -444.000
861.405; -134.400; -534.000; -670.000
861.653;    8.550;  310.000;  310.000
861.901;  165.650; -543.000; -613.000
862.149;  -15.250; -801.000; -824.000
862.396;  -74.950; -297.000; -187.000
862.644;  -87.650; -368.000; -347.000
862.892;  -25.300;   98.000;  138.000
863.140; -116.175; -549.000; -530.000
863.388; -158.575; -815.000; -759.000
863.635; -125.650; -642.000; -601.000
863.883;  -15.575;  231.000;  190.000
864.131;  -90.325; -288.000; -357.000
864.378; -130.800; -675.000; -540.000
864.626;  -97.350; -347.000; -415.000
864.873; -110.900; -556.000; -505.000
865.121; -128.900; -714.000; -799.000
865.368;  -42.900; -173.000;   75.000
865.616;  -34.575;  -33.000;  -40.000
865.863;  -67.975; -462.000; -506.000
866.111; -119.500; -795.000; -824.000
866.358;   43.450; -426.000; -420.000
866.605; 2385.275;  -64.000; -804.000
866.853; 2495.525; -621.000; -537.000
867.100;  -45.625; -728.000; -775.000
867.347;  -95.900; -672.000; -611.000
867.594;  -86.475; -740.000; -714.000
867.841;   66.925;   97.000;   17.000
868.089; -155.125; -746.000; -698.000
868.336; -107.175; -477.000; -420.000
868.583; -144.550; -637.000; -741.000
868.830;  -40.100; -131.000; -170.000
869.077; -161.475; -859.000; -787.000
869.324; -114.775; -502.000; -458.000
869.571; -124.525; -398.000; -430.000
869.818; -129.275; -485.000; -439.000
870.065; -126.800; -439.000; -513.000
870.311; -113.800; -456.000; -542.000
870.558; -109.675; -332.000; -311.000
870.805;  -78.675; -320.000; -384.000
871.052; -105.250; -494.000; -369.000
871.298;  -51.800; -204.000; -131.000
871.545;  -63.875; -151.000; -185.000
871.792;  -83.550; -173.000; -222.000
872.038;  -74.225;   43.000; -126.000
872.285; -124.350; -496.000; -387.000
872.532; -107.800; -357.000; -387.000
872.778;   23.400;  556.000;  403.000
873.025;  -98.025; -384.000; -359.000
873.271;   25.425;  501.000;  578.000
873.517;  -43.550; -133.000; -209.000
873.764;  -35.875; -193.000;  -80.000
874.010;  -68.300; -143.000; -230.000
874.257;  -38.150;  123.000;   90.000
874.503; -127.825; -579.000; -479.000
874.749;  -61.200;   31.000;  275.000
874.995;  -71.150;  -80.000;  -20.000
875.242; -113.425; -540.000; -478.000
875.488; -111.900; -414.000; -439.000
875.734;  -47.050; -106.000; -234.000
875.980;  159.325; -872.000;-1032.000
876.226;  333.300; -157.000; -255.000
876.472;  -11.325;  343.000;  237.000
876.718;  -39.900;  184.000;  158.000
876.964;  -53.575;   56.000;   55.000
877.210; -144.475; -547.000; -677.000
877.456; -142.000; -630.000; -557.000
877.702; -178.950; -821.000; -832.000
877.948; -117.275; -377.000; -497.000
878.193;    6.600;  361.000;  255.000
878.439; -112.450; -487.000; -472.000
878.685; -103.450; -272.000; -343.000
878.931; -132.625; -618.000; -676.000
879.176;  -80.475; -201.000; -201.000
879.422; -178.050; -933.000; -820.000
879.668;   60.275;   10.000;   79.000
879.913;  124.125;   53.000;  137.000
880.159;  -56.925; -112.000;  -17.000
880.404;  -63.175; -152.000; -162.000
880.650;  -38.525;   91.000;  141.000
880.895; -163.275; -670.000; -710.000
881.141; -102.075; -454.000; -428.000
881.386; -151.725; -503.000; -658.000
881.631;  -82.675; -311.000; -166.000
881.877;  -34.100;  112.000;  -13.000
882.122; -129.900; -684.000; -600.000
882.367; -101.550; -136.000; -186.000
882.612;  -72.375;  -80.000; -176.000
882.858; -184.025; -877.000; -823.000
883.103;  -92.850; -297.000; -267.000
883.348; -162.575; -759.000; -852.000
883.593; -146.225; -677.000; -602.000
883.838;  -57.575; -311.000;  -24.000
884.083;   21.050;  353.000;  288.000
884.328; -108.350; -564.000; -545.000
884.573;  -48.050; -196.000; -143.000
884.818;  165.075; -694.000; -531.000
885.063;  158.425; -348.000; -315.000
885.308; -107.725; -475.000; -398.000
885.553;    2.000;  245.000;  325.000
885.797; -125.475; -545.000; -615.000
886.042;  -43.975;    8.000;   58.000
886.287;  -88.125; -253.000; -211.000
886.532;  -57.675;   26.000;  204.000
886.776;  -97.275; -407.000; -525.000
887.021; -130.475; -621.000; -574.000
887.265; -153.200; -685.000; -689.000
887.510; -134.200; -557.000; -496.000
887.755; -101.350; -194.000; -164.000
887.999; -136.550; -552.000; -575.000
888.244;  -60.650;  -58.000;  161.000
888.488;   -6.975;  371.000;  393.000
888.732; -121.125; -368.000; -520.000
888.977; -119.625; -622.000; -567.000
889.221; -158.950; -683.000; -659.000
889.465; -113.400; -422.000; -566.000
889.710;  -81.650;  -56.000; -299.000
889.954;   -4.050;  579.000;  467.000
890.198; -154.400; -584.000; -707.000
890.442; -152.600; -716.000; -712.000
890.687; -164.550; -800.000; -753.000
890.931;  -82.250; -273.000; -210.000
891.175; -139.575; -502.000; -500.000
891.419;  -80.025; -105.000; -110.000
891.663;  -99.700; -239.000; -112.000
891.907; -149.075; -801.000; -545.000
892.151; -177.575; -920.000; -815.000
892.395; -105.125; -274.000; -387.000
892.638;  -25.350;  408.000;  291.000
892.882; -176.550; -780.000; -867.000
893.126;   18.750;  758.000;  558.000
893.370;  -81.975; -167.000; -168.000
893.614; -152.575; -714.000; -715.000
893.857;  -87.250; -183.000; -197.000
894.101; -132.250; -527.000; -631.000
894.345;  -49.700;  300.000;  150.000
894.588;   11.150;  569.000;  380.000
894.832;  -77.400; -178.000;  -84.000
895.075;  -80.600;   15.000;  -92.000
895.319; -117.025; -552.000; -420.000
895.563; -124.875; -413.000; -353.000
895.806; -157.975; -628.000; -741.000
896.049;  -67.425; -576.000; -368.000
896.293;   98.875;  527.000;  405.000
896.536;  -80.100; -465.000; -468.000
896.779;  -56.400; -149.000;   -1.000
897.023; -144.125; -751.000; -714.000
897.266;  -31.125;  325.000;  269.000
897.509; -184.075; -900.000; -901.000
897.752;  -45.300;  149.000;  171.000
897.996; -195.050; -972.000; -864.000
898.239;  -42.650;  168.000;  102.000
898.482; -124.600; -431.000; -453.000
898.725;  -30.500;  101.000;   53.000
898.968; -170.950; -609.000; -744.000
899.211; -107.225; -513.000; -361.000
899.454; -116.100; -633.000; -539.000
899.697;  -58.500;   90.000;  -43.000
899.940; -173.425; -761.000; -757.000
900.182; -106.975; -335.000; -405.000
900.425; -103.625; -150.000; -298.000
900.668;  -12.600;  491.000;  350.000
900.911; -102.450; -292.000; -345.000
901.154;  -42.550;  141.000;   -3.000
901.396; -148.325; -407.000; -412.000
901.639; -138.125; -430.000; -496.000
901.882; -184.850; -790.000; -809.000
902.124;  -80.500;  -29.000; -143.000
902.367; -117.825; -315.000; -361.000
902.609; -132.450; -476.000; -453.000
902.852;  -96.900; -108.000; -260.000
903.094; -129.550; -458.000; -337.000
903.337;  -60.000;  -26.000;   53.000
903.579; -105.750; -228.000; -441.000
903.821; -154.125; -597.000; -744.000
904.064;  -58.575;   85.000;  127.000
904.306;  -86.075; -126.000; -166.000
904.548; -103.700; -152.000; -366.000
904.790; -107.425; -195.000; -340.000
905.033; -126.875; -625.000; -577.000
905.275; -122.125; -513.000; -524.000
905.517;   53.650;  468.000;  256.000
905.759;  -82.100; -667.000; -761.000
906.001; -104.550; -322.000; -369.000
906.243;  -76.200; -162.000; -224.000
906.485;   98.550; -265.000; -207.000
906.727;   88.500; -499.000; -542.000
906.969;  -23.200;  -30.000; -135.000
907.211;   87.125; -316.000; -382.000
907.453;  245.200; -188.000; -237.000
907.695;  -10.275; -158.000; -385.000
907.936;   38.375;  818.000;  706.000
908.178;  -56.825;   92.000; -135.000
908.420;  -67.450; -111.000; -162.000
908.662; -135.575; -633.000; -682.000
908.903;  -84.925; -208.000; -123.000
909.145;  -72.300; -240.000; -305.000
909.386;  -11.000;  315.000;  280.000
909.628;   36.650;  363.000;  397.000
909.870;    0.350;   29.000;  264.000
910.111; -103.125; -809.000; -949.000
910.353;   21.375; -123.000; -161.000
910.594;    2.400; -574.000; -606.000
910.835;   75.650; -265.000; -326.000
911.077;  142.900; -503.000; -604.000
911.318;  284.900; -505.000; -471.000
911.559;  453.125; -577.000; -880.000
911.801; 1330.375; -284.000; -280.000
912.042;10259.925;  -50.000; -159.000
912.283;26850.425;  404.000;  371.000
912.524; 4137.450; -396.000; -457.000
912.765;  470.125; -193.000;   79.000
913.006;  220.600; -307.000; -338.000
913.247;   49.025; -270.000; -290.000
913.488;   -5.400;  -43.000;   30.000
913.729;  -77.050; -373.000; -373.000
913.970;  -65.125;  -96.000; -292.000
914.211;  -63.025; -160.000; -198.000
914.452;  -78.275; -118.000;  -11.000
914.693;    9.800;  510.000;  592.000
914.934;    1.950;  510.000;  440.000
915.175;  -69.375;   53.000;  -95.000
915.415;  -82.850; -137.000;   27.000
915.656;  -74.850;  -28.000;  192.000
915.897; -106.025; -252.000;  -82.000
916.137;  -64.750;   74.000;   -9.000
916.378; -138.550; -573.000; -517.000
916.619;  -81.425; -159.000;  -63.000
916.859;  -38.450;  303.000;  330.000
917.100;  136.500; 1655.000; 1070.000
917.340;   45.600;  930.000;  728.000
917.581;   56.725;  965.000;  789.000
917.821;  -34.750; -171.000;  143.000
918.061;    7.775; -199.000;  -72.000
918.302;  -43.550; -152.000; -211.000
918.542;  -19.300;  -22.000;    3.000
918.782;   30.650;  369.000;  377.000
919.023;  130.175;  360.000;  427.000
919.263; 1740.325; 8131.000;  202.000
919.503; 1097.250; -137.000;  -54.000
919.743;  589.150;  390.000;  266.000
919.983;  250.150; -134.000;  -26.000
920.223;   74.700;  135.000;   14.000
920.463;  154.025;  631.000;  554.000
920.703;  131.975;   84.000;   39.000
920.943;  169.025; -110.000;   90.000
921.183;  238.775; -414.000; -405.000
921.423;  519.975;  307.000;  546.000
921.663;  757.625; -174.000; -257.000
921.903; 1621.575;  237.000;  173.000
922.143; 8825.275;  372.000;  389.000
922.383;34163.075;  158.000;  115.000
922.622;11662.850; -120.000;  -15.000
922.862; 1266.250;  796.000;  785.000
923.102;  468.675;  -51.000;   33.000
923.341;  196.950;   59.000;   74.000
923.581;   75.050;  450.000;  360.000
923.821;   41.175;  301.000;  398.000
924.060;    5.500;  351.000;  193.000
924.300;  -60.250;  -16.000; -128.000
924.539;  -14.500;  584.000;  473.000
924.779;   22.975;  812.000;  597.000
925.018;  -59.400;  247.000;  353.000
925.257;   -0.500;  595.000;  666.000
925.497;  -35.825;  447.000;  412.000
925.736;  -87.150;  -35.000;  102.000
925.975;    8.500;  687.000;  669.000
926.214;   27.750;  907.000;  850.000
926.454;    5.125;  706.000;  757.000
926.693;  -29.625;  419.000;  543.000
926.932;   27.925; 1021.000;  825.000
927.171;   77.825; 1107.000; 1044.000
927.410;   68.125; 1144.000;  967.000
927.649;   13.525;  924.000;  742.000
927.888;  -23.300;  590.000;  564.000
928.127;   -1.000;  680.000;  678.000
928.366;   24.675;  842.000;  826.000
928.605;   46.225;  831.000;  737.000
928.844;  220.425; 1451.000; 1393.000
929.083;  591.225;  770.000;  613.000
929.321;  325.525; 1335.000; 1359.000
929.560;   94.475; 1158.000; 1122.000
929.799;  -20.450;  574.000;  475.000
930.038;   80.750; 1025.000; 1394.000
930.276;  -57.225;  334.000;  397.000
930.515;    5.525;  827.000;  681.000
930.753;  -17.275;  614.000;  589.000
930.992;  -29.425;  664.000;  717.000
931.230;   -8.575;  847.000;  847.000
931.469;  173.600; 2162.000;  892.000
931.707;   53.250;  840.000;  751.000
931.946;   74.800; 1278.000; 1344.000
932.184;   62.400; 1437.000; 1175.000
932.423;   59.225; 1265.000;  963.000
932.661;   98.075; 1296.000; 1428.000
932.899;   33.175;  987.000;  821.000
933.137;    6.400;  754.000;  564.000
933.376;  136.800; 1664.000; 1335.000
933.614;  165.025; 1759.000; 1196.000
933.852;   73.950; 1357.000; 1171.000
934.090;  135.050; 1722.000; 1747.000
934.328;  119.075; 1252.000; 1457.000
934.566;   94.675; 1431.000; 1110.000
934.804;  141.725; 1263.000; 1309.000
935.042;  477.250; 1861.000; 1850.000
935.280; 1923.800; 2088.000; 2063.000
935.518; 1824.375; 2113.000; 2007.000
935.756;  393.700; 2481.000; 2316.000
935.994;  170.900; 1808.000; 1751.000
936.231;  358.075; 2890.000; 2950.000
936.469;  190.575; 2367.000; 2378.000
936.707;  169.250; 2220.000; 2167.000
936.945;  230.600; 2825.000; 2882.000
937.182;  221.300; 2679.000; 2741.000
937.420;  307.625; 3602.000; 3031.000
937.657;  424.750; 3365.000; 3478.000
937.895;  357.700; 3331.000; 3488.000
938.133;  311.450; 3540.000; 3528.000
938.370;  326.250; 3896.000; 4191.000
938.607;  397.300; 4488.000; 4205.000
938.845;  543.175; 5587.000; 5549.000
939.082;  484.225; 5387.000; 5177.000
939.320;  534.175; 5799.000; 5728.000
939.557;  648.825; 6549.000; 6491.000
939.794;  720.450; 7285.000; 7097.000
940.031;  909.050; 8421.000; 8368.000
940.269; 1095.550; 9552.000; 9107.000
940.506; 1129.750;10901.000;10507.000

