
Integration time [ms]: 100.000
Averaging Nr. [scans]: 40
Smoothing Nr. [pixels]: 0
Data measured with spectrometer [name]: 2101013U2
Wave   ;Sample   ;Dark     ;Reference
[nm]   ;[counts] ;[counts] ;[counts] 

394.013;   46.538; -450.257; -315.536
394.305;  231.685; -461.258; -419.536
394.596; 1086.008; -676.269; -527.514
394.887; 2656.625; -796.268; -654.518
395.178; 1004.805;  145.736;   11.476
395.470;   80.816; -210.263; -356.526
395.761;  227.914;  305.734;  394.479
396.052;  369.434; -545.284; -306.489
396.343;  358.128; -557.276; -454.503
396.634;  133.547; -200.279; -290.497
396.926;  132.647; -618.268; -565.517
397.217;  129.933;   11.725;  -17.504
397.508;   55.323; -366.273; -154.507
397.799;   75.397; -555.279; -571.497
398.090;    3.167; -973.280; -902.495
398.381;  134.659;   11.708;  -11.473
398.672;    7.261; -585.292; -742.473
398.963;   59.553; -348.279; -373.498
399.254;  116.345;   54.709; -209.475
399.545;  -11.764;-1017.266; -883.520
399.836;   62.067; -407.277; -343.501
400.127;   71.961; -205.295; -209.468
400.418;   59.543; -423.274; -392.506
400.709;   82.379; -359.281; -333.493
401.000;   47.799; -268.291; -309.476
401.290;   97.073;  225.698;  115.545
401.581;   67.467; -166.286; -228.485
401.872;   26.433; -542.298; -486.462
402.163;   48.828; -313.296; -252.467
402.454;   91.145; -123.291; -163.475
402.744;   81.170; -844.297; -813.465
403.035;  503.676; -226.293;  -86.471
403.326;  630.213; -366.292; -384.474
403.617;  399.828;  204.701;  165.539
403.907;  258.040; -593.283; -679.490
404.198; 2323.602; -545.307; -599.446
404.489; 6168.094; -618.283; -588.491
404.779; 2084.901; -618.302; -660.456
405.070;  230.355;  -67.304; -174.451
405.360;  322.603; -259.293; -238.472
405.651;  368.888;  125.699;   98.542
405.942;  195.137;  209.714;  127.516
406.232;  324.202; -432.285; -413.487
406.523;  514.621;  641.706;  758.530
406.813;  107.164; -579.286; -644.484
407.104;  401.133;  261.708;  144.527
407.394;  208.679; -604.299; -591.462
407.685;  168.076;  336.715;  222.513
407.975;   58.393; -400.283; -382.490
408.265;  116.110; -134.289; -190.478
408.556;   70.342; -472.291; -459.475
408.846;  166.647;  474.706;  429.530
409.137;   83.443;   -1.288; -216.480
409.427;   56.376; -193.285; -271.487
409.717;   36.827; -776.273; -692.508
410.007;  160.770;    4.715; -170.486
410.298;   91.439; -360.295; -342.469
410.588;   68.974; -495.285; -510.486
410.878;   27.054; -792.287; -873.482
411.168;  134.861; -481.298; -478.463
411.459;  107.638; -295.283; -242.489
411.749;   61.341; -609.292; -507.474
412.039;   68.291; -755.289; -386.480
412.329;  212.685;   40.722;  132.501
412.619;  216.915;  -62.286; -148.485
412.909;  380.587;  639.711;  594.521
413.199;  341.117; -130.280; -251.495
413.490;  407.453;  521.710;  352.523
413.780;  148.796;-1013.279; -913.496
414.070;  328.179;  -46.276;  235.497
414.360;  384.682; -729.278; -666.498
414.650;  437.675; -726.288; -688.482
414.940;  532.770; -538.280; -441.496
415.230;  931.422;   50.712;   74.519
415.520; 5958.157;  155.730;   66.486
415.809;23625.953; -305.281; -125.493
416.099;18081.620; -388.277; -229.501
416.389; 5003.941;  435.726;  236.494
416.679; 2934.945;   91.738;   85.473
416.969;  535.033; -527.287; -503.483
417.259;  459.248;  341.721;  171.503
417.549;  700.577;  522.718;  318.508
417.838; 1611.149; -205.268; -147.518
418.128; 5307.333;  650.710;  492.522
418.418; 4411.308; -491.272; -579.509
418.708; 3004.791;    9.726;  -48.506
418.997;11300.462; -474.275; -480.505
419.287;11762.298; -733.273; -790.507
419.577;10985.512; -160.283; -123.489
419.866;36599.543; -588.277; -498.501
420.156;37723.653; -242.270;  -55.513
420.446; 6793.762; -112.263;  -26.526
420.735;  921.047; -376.271; -446.512
421.025;  847.806; 1830.722;  315.502
421.314;  739.396; -203.271; -226.512
421.604; 1640.817;   89.732;  233.484
421.893;  942.292; -705.271; -602.511
422.183;  254.787; -487.263; -461.526
422.472;  389.368;  -36.271; -107.511
422.762;  481.442; -416.266; -379.521
423.051;  249.955; -916.276; -916.503
423.341;  346.950; -491.273; -439.507
423.630;  437.923; -121.265;   15.477
423.919;  405.036;   58.725;   49.495
424.209;  369.593;  -31.263;   56.473
424.498;  491.522;   68.732;  161.483
424.787; 1056.753; -535.267; -601.518
425.077; 3357.371;   34.735;   29.478
425.366; 4942.098; -734.262; -744.528
425.655; 9814.800;  639.727;  259.493
425.945;20547.026; -313.247; -268.554
426.234;11368.921;  117.741;  300.467
426.523; 4991.151;  -86.259; -350.534
426.812; 6838.588;  107.734;  159.480
427.101;10033.038; -127.269; -323.515
427.390;12734.307;  -55.270;  -86.514
427.680; 3086.846; -624.257; -411.538
427.969;  508.156; -330.255; -301.540
428.258;  330.262; -385.257; -477.536
428.547;  578.737;  449.728;  397.490
428.836; 1386.097; -421.253; -398.543
429.125; 2040.578; -199.259;  -72.534
429.414;  839.620; -330.251; -294.548
429.703; 3070.145; -231.251; -213.548
429.992; 9106.673; -938.250; -828.549
430.281; 5974.105; -397.264; -331.524
430.570;  598.485;  -21.252;   32.454
430.859;  604.651;  279.741;  352.466
431.148;  448.822;  636.752;  631.446
431.437;  296.185;  391.748;  367.454
431.725;  158.114; -544.257; -481.536
432.014;  143.530; -845.253; -756.545
432.303;  418.297; -149.239; -105.569
432.592;  653.237; -460.263; -178.525
432.881; 1051.248; -601.248; -437.554
433.169; 6013.132; -343.255;  -61.540
433.458;12174.031;  445.765;  540.424
433.747; 5125.154; -397.261; -289.529
434.036;  916.898; -275.242; -280.564
434.324; 2072.211; -395.249; -379.551
434.613; 3572.467;   40.757;  159.437
434.902; 1216.363;  333.760;  439.433
435.190;  663.121;   75.761;  295.431
435.479;  366.524;  -52.245;   83.441
435.767;  110.557; -411.244; -427.561
436.056;  234.594; -340.242; -294.563
436.345;  378.165; -372.240; -223.568
436.633;  384.206;   60.750;  383.450
436.922;  282.842;  208.760;  414.432
437.210;  723.921; -194.236;    1.426
437.499; 2275.354; -583.235; -432.576
437.787; 2500.970; -339.236;  -10.574
438.075;  608.102;   56.761;  162.430
438.364;  853.754;  -44.238;  250.429
438.652;  501.308; -286.226; -138.592
438.941;  147.547;    3.770;  269.415
439.229;   13.858; -665.252; -466.545
439.517;   44.362; -160.234;  -85.577
439.806;   -8.226; -501.225; -290.595
440.094;  189.270;  377.766;  650.421
440.382;  208.949; -653.233; -302.580
440.670;  247.679; -361.235; -285.576
440.959;   28.941; -347.223; -170.599
441.247;   87.284; -151.229; -109.587
441.535;  123.711; -266.235;   31.423
441.823;   49.317; -497.234; -305.578
442.111;  193.313;  173.771;  327.412
442.400;  593.298; -628.245; -335.559
442.688; 1612.794; -111.234; -620.579
442.976; 1198.828; -786.213; -450.617
443.264;  120.305; -324.224; -364.597
443.552;  127.334; -258.226;   51.408
443.840;  158.859;  602.765;  876.423
444.128;  119.148;  265.767;  269.420
444.416;   15.540; -694.228; -312.588
444.704;   30.295; -465.219;  -92.605
444.992;   90.412;   -0.226;  240.407
445.280;   68.398; -517.230;  -94.585
445.568;   47.706; -694.212; -396.618
445.856;  401.929; -174.221;  357.398
446.143;  891.242;  -54.220;   -7.604
446.431;  732.244;  -25.228;  625.411
446.719;  257.764;  489.783;  675.391
447.007;  201.767;  481.769;  705.416
447.295;  180.063;  597.777;  871.402
447.583;  112.981; -464.229;  -34.587
447.870;  156.476; -434.221; -202.601
448.158;  481.197; -104.230;  129.415
448.446;  346.443; -800.219; -338.604
448.733;  195.407;   13.776;  269.403
449.021;  276.106;   60.788;  341.382
449.309;  216.871; -296.210;  208.379
449.596;  221.211;  128.783;   59.392
449.884;  170.920; -571.222; -325.600
450.172;  147.524; -756.227; -406.590
450.459;  435.536;  645.786;  780.387
450.747; 2260.909; -411.218; -147.608
451.034; 7310.145;  493.772;  889.411
451.322; 6020.764; -413.214; -170.614
451.609;  516.258;  292.777;  508.403
451.897;  578.608; -550.203; -183.634
452.184; 1762.113; -622.223; -400.598
452.472; 1656.267;   97.792;  269.375
452.759;  364.343;  512.781;  864.395
453.047;  136.079; -407.212; -125.617
453.334;  104.051; -732.219; -216.606
453.621;   82.392; -438.214; -161.615
453.909;  130.075;   13.796;  384.368
454.196;  107.470; -299.199; -123.641
454.483;  214.871;  317.798;  540.364
454.771;  139.645; -215.208;  196.374
455.058;   48.523; -316.207;  102.374
455.345;  113.450;   71.807;  344.347
455.632;  100.626; -128.207;  235.373
455.919;   49.868;  -82.196;  182.354
456.207;  -42.550; -774.198; -450.642
456.494;   -4.417; -475.200;  -66.639
456.781;   16.067; -399.202; -198.635
457.068;   54.283; -253.206;  -29.628
457.355;    8.209; -698.206; -401.629
457.642;   -0.285; -552.205; -290.630
457.929;    6.691; -778.194; -417.651
458.216;   68.479; -575.212; -354.617
458.503;  230.221; -173.193;  -19.652
458.790;  212.993; -864.208; -630.625
459.077;  263.747;  -77.202;  110.364
459.364;  786.609; -350.195; -210.649
459.651; 1618.706;  -46.206;  220.372
459.938;  740.358; -864.209; -665.623
460.225;  153.150;  132.799;  276.363
460.512;  -43.635; -836.197; -688.645
460.799;  122.508;  -32.218;  320.392
461.086;   88.838; -370.200; -251.640
461.372;   72.325; -509.198; -279.642
461.659;  122.869; -165.196;  108.354
461.946;   80.319; -445.193;  -54.651
462.233;  245.885;  842.800;  888.361
462.519;  350.482; -814.201; -464.639
462.806;  993.715; -768.197; -497.645
463.093;  852.465; -445.191;  -66.656
463.380;  -19.544; -920.186; -824.664
463.666;   66.242; -259.197;  -18.646
463.953;   90.904; -406.195; -243.648
464.239;  204.979; -173.195;  -77.648
464.526;  413.465;  413.806;  743.350
464.813;  377.726; -565.190; -304.658
465.099;  371.870;  606.807;  607.348
465.386;  352.174;  903.807;  921.348
465.672;   36.665; -694.197; -522.645
465.959;   28.794; -598.188; -520.662
466.245;   14.424; -468.193; -359.652
466.532;  118.477; -109.195;   63.352
466.818;   78.930; -357.186; -216.664
467.104;    1.270; -488.182; -415.672
467.391;  -20.797; -628.189; -459.658
467.677;   40.534; -289.186;    9.335
467.964;    5.160; -682.189; -471.660
468.250;   79.987; -331.186; -160.665
468.536;   82.854;   90.811;  180.341
468.822;  -22.227; -821.184; -574.668
469.109;  132.350;  351.827;  471.311
469.395;  187.159;  729.808;  787.346
469.681;  194.332;   46.811;  156.341
469.967; 1209.762; -699.188; -382.660
470.254; 2611.120; -494.188; -306.662
470.540; 1674.117; -601.196; -476.646
470.826;  256.506; -488.181; -397.675
471.112;  281.252;  288.816;  113.331
471.398;   94.106; -253.183;  -58.670
471.684;   54.184; -626.177; -447.680
471.970;  -10.290; -918.180; -981.675
472.256;   38.583; -521.192; -441.654
472.542;    0.586; -499.171; -434.691
472.828;   16.641; -743.182; -607.672
473.114;   44.704; -380.166; -283.700
473.400;   22.351; -504.175; -293.684
473.686;   40.610; -452.166; -400.701
473.972;   58.465; -230.174; -131.687
474.258;  -38.925; -925.173; -843.689
474.544;  184.426; -183.178;   -2.679
474.830;  290.752;  -65.175;   45.316
475.116;  454.653; -123.190; -196.658
475.401;  631.412; -558.180; -467.676
475.687;  206.586; -725.180; -718.676
475.973;   26.599; -673.181; -770.673
476.259;  257.254;  736.825;  764.315
476.544;  357.567; -539.176; -437.682
476.830;  766.532; -398.172; -322.690
477.116;  672.766; -430.177; -336.682
477.401;  139.912;  346.820;  358.324
477.687;   -9.324; -289.175; -405.684
477.973;   29.453;   21.819;   28.326
478.258;   -6.219; -448.163; -348.706
478.544;   64.267;   21.815;   61.334
478.829;  -59.559; -818.171; -738.692
479.115;  -30.968; -749.172; -651.690
479.401;  -11.389; -444.174; -449.686
479.686;   37.411; -253.180;  -74.676
479.972;  -49.394; -886.178; -776.680
480.257;   29.756; -258.166;  -65.700
480.542;   -4.255; -614.170; -469.693
480.828;  225.624; 1288.824; 1392.317
481.113;  -38.553; -464.176; -426.683
481.399;   11.854; -236.161; -202.711
481.684;  -48.970; -620.166; -462.700
481.969;   15.167; -158.159;  -73.713
482.255;  -10.469; -439.169; -285.695
482.540;    5.881; -569.178; -441.680
482.825;   -3.249; -395.187; -404.663
483.110;   77.509;  -85.169; -105.696
483.396;  169.839; -840.157; -652.718
483.681;  475.490;  543.826;  730.313
483.966;  143.561; -696.160; -700.712
484.251;   10.439; -404.174; -310.687
484.536;   -0.784; -356.165; -378.703
484.822;   19.242; -205.173; -218.687
485.107;  -31.098; -599.152; -502.726
485.392;  116.971;  662.836;  541.296
485.677;   72.219;  354.832;  163.302
485.962;  108.211;  160.843;  270.283
486.247;   94.938;  -14.162;   -8.707
486.532;   47.257; -178.166; -325.701
486.817;  166.074;  381.839;  431.291
487.102;  123.635; -453.154; -514.722
487.387;  632.041; -637.156; -652.718
487.672; 1119.926; -154.164;  -38.705
487.957;  693.206; -394.160; -286.711
488.241;  195.943; -290.150; -314.729
488.526;  696.553; -280.152; -148.726
488.811; 1161.133; -881.177; -818.680
489.096;  827.362; -666.154; -702.723
489.381;  481.624;    3.847;  162.275
489.666;  350.604; -428.161; -510.710
489.950;  167.065;  558.846;  627.277
490.235;  -31.962; -480.151; -458.728
490.520;  -23.922; -756.161; -723.710
490.804;  -62.532; -827.156; -736.719
491.089;    4.434; -469.149; -299.732
491.374;   25.875; -132.164;  -75.704
491.658;   -2.255; -817.147; -717.735
491.943;  185.582; -657.152; -609.727
492.227;  291.081; -178.155;  -38.721
492.512;   49.011; -294.157; -341.717
492.797;  -58.947; -713.149; -716.731
493.081;  -52.352; -588.147; -598.735
493.366;  -36.196; -751.161; -635.711
493.650;  194.350;  831.859;  917.254
493.935;   26.719; -648.147; -447.734
494.219;  -33.587; -778.142; -687.743
494.503;  -39.127; -585.150; -487.730
494.788;   50.028;   46.842;   74.285
495.072;   79.694;  184.850;  434.271
495.356;  155.087; -463.148; -343.733
495.641;  483.329; -812.146; -736.736
495.925;  448.197; -976.156; -903.719
496.209;   53.983; -599.149; -451.732
496.494;  -41.462; -763.142; -544.744
496.778;    9.410; -364.154; -360.722
497.062;  -55.003; -819.156; -627.719
497.346;  -27.193; -869.160; -640.711
497.631;  130.115;  580.852;  560.266
497.915;   81.915;  -64.145;  175.261
498.199;   57.289; -341.157; -277.718
498.483;   45.026; -562.152; -508.725
498.767;  180.671;  301.850;  300.271
499.051;  191.231; -126.149; -100.732
499.335;   23.329; -693.149; -739.731
499.619;  -27.074; -381.129; -423.767
499.903;   22.404; -272.155;  -65.721
500.187;   40.617; -588.153; -316.724
500.471;   25.706; -796.152; -595.727
500.755;  120.778;   62.839;  -96.710
501.039;   29.130; -270.155; -357.721
501.323;  116.052;  -21.141;  264.254
501.607;   31.556; -447.163; -503.706
501.891;    1.265; -607.156; -512.718
502.174;  -30.124; -726.144; -585.741
502.458;   88.060;   89.849;  370.273
502.742;   31.401; -180.138; -191.751
503.026;  115.694; -412.147; -254.734
503.310;  171.416; -437.159; -375.713
503.593;  122.821; -464.147; -325.735
503.877;  108.866; -232.133; -156.760
504.161;  184.819;    2.847;  -50.724
504.444;  123.655; -841.158; -710.716
504.728;  453.249; -487.164; -522.704
505.012;  701.267; -257.150;  -76.729
505.295;  506.604; -417.161; -212.711
505.579;  496.947; -256.156; -496.719
505.862;  713.386; -555.145; -333.738
506.146;  682.119; -681.159; -758.714
506.429;  394.419;  568.841;  461.286
506.713;   56.990; -732.151; -667.728
506.996;  306.509;   90.846;  295.278
507.280;  308.169; -633.165; -474.703
507.563;  231.528; -469.155; -261.721
507.847;   78.593; -423.153; -112.724
508.130;  101.280; -665.161; -456.711
508.413;  100.926; -758.167; -577.700
508.697;  221.576; -151.167;   12.300
508.980;  139.269; -422.153; -312.724
509.263;   -6.226; -466.155; -450.720
509.547;   22.942; -124.150;   82.271
509.830;   47.682; -172.160;  140.289
510.113;   82.822;  128.844;  298.281
510.396;   43.800; -530.152; -300.725
510.680;  185.737; -818.145; -812.738
510.963;  713.489;  184.846;  180.277
511.246;  646.850; -493.150; -357.730
511.529;  270.642; -482.145;  -83.739
511.812;  351.887; -250.134;   10.241
512.095;  259.537; -740.151; -396.728
512.378;   68.850; -317.147; -245.736
512.661;   13.233; -703.137; -623.753
512.944;   15.890; -750.142; -637.744
513.227;   81.731; -170.137; -171.752
513.510;   19.126; -479.144; -671.741
513.793;   34.731; -485.140; -435.747
514.076;  122.596;  -43.127;  -39.771
514.359;  112.159; -294.149; -135.732
514.642;   79.893; -442.142; -567.744
514.925;  720.705;  581.860;  561.253
515.208;  934.484; -498.134; -443.758
515.491;  610.522; -276.133; -182.761
515.773;  343.954; -410.143; -337.742
516.056; 1969.465;  249.864;  409.246
516.339; 2737.144; -754.136; -652.755
516.622; 1968.048; -518.150; -488.730
516.904; 1411.661;  882.857;  975.257
517.187;  689.979; -730.138; -523.752
517.470;  415.260; -568.143; -510.743
517.752;  422.596; -624.136; -470.756
518.035;  332.092; -708.139; -725.749
518.318;  356.344; -799.136; -744.755
518.600; 2290.901; -300.132; -325.762
518.883; 3144.017;  310.858;   88.256
519.165; 1525.047; -585.138; -426.751
519.448;  412.675;  -61.132;  -19.762
519.730;  205.929; -573.126; -415.773
520.013;  331.993;  588.867;  664.240
520.295;  970.739;  -94.134;  -15.759
520.578; 2186.863; -335.131; -305.764
520.860; 2419.351; -254.132;   56.238
521.143; 1254.073; -763.135; -584.756
521.425;  481.991; -251.125; -279.775
521.707;  664.272; -622.127; -380.771
521.990; 1680.347; -199.127;  167.229
522.272; 1934.708; -116.140;   -4.748
522.554;  903.630; -237.143; -157.742
522.836;  411.812;  -24.134;   99.241
523.119;  235.793; -496.148; -189.734
523.401;  167.045; -448.130; -314.766
523.683;   96.384; -865.137; -693.753
523.965;  273.502;  408.862;  260.248
524.247;  253.437;   54.878;  170.220
524.529;  190.439; -451.134; -367.759
524.812;  346.122;   -3.130;  191.234
525.094;  830.377; -773.138; -631.751
525.376; 1283.225; -143.124;   78.223
525.658;  769.366; -441.136; -339.754
525.940;   18.010; -805.131; -671.764
526.222;   50.644; -188.136;  -88.755
526.504;  122.358; -190.131;   32.237
526.786;  251.441; -960.133; -647.760
527.068;  360.706; -124.123;  -67.778
527.349;  168.787; -865.137; -774.754
527.631;  149.550; -137.132;   22.238
527.913;  140.946; -664.127; -450.771
528.195;  154.084; -761.125; -639.774
528.477;  248.909;  -93.134;  -30.758
528.759;  130.497; -648.130; -522.766
529.040;   66.530; -569.123; -293.778
529.322;   48.987; -235.125;  -10.774
529.604;  154.999;  -47.130;   93.233
529.886;  151.378; -546.126; -302.773
530.167;  131.816;  232.870;  192.235
530.449;   49.674;    1.853;   63.265
530.731;   25.736; -572.122; -459.779
531.012;   59.232; -513.120; -216.784
531.294;   64.796; -118.116;  -43.792
531.575;  132.091;  290.875;  538.225
531.857;   59.604; -548.135; -266.757
532.138;   86.476; -113.141;   40.254
532.420;  196.825;  294.865;  403.244
532.701;  257.519; -722.133; -751.760
532.983;  392.172;  232.867;  182.239
533.264;  142.426; -243.126;  175.228
533.546;  -26.531; -491.136; -508.755
533.827;   62.665;  173.867;   -1.759
534.109;   55.229; -352.135;  -80.757
534.390;  115.979; -725.132; -582.762
534.671;  262.075; -270.135;  -82.756
534.953;  141.132; -751.123; -611.779
535.234;   27.581; -426.117; -255.789
535.515;  -78.260; -891.119; -735.785
535.796;  -26.133; -431.128; -193.770
536.078; -118.075;-1050.124; -904.777
536.359;   12.133;  -22.123;    3.221
536.640;  -11.039; -480.125; -197.774
536.921;  181.229;  225.871;  143.232
537.202;  340.498;  -87.138;  -16.751
537.483;  438.338;  251.869;  377.236
537.764;  148.766;   17.870;   98.235
538.045;  -31.592; -543.134; -371.758
538.326;  -36.194; -596.129; -447.768
538.607;   20.647; -686.127; -476.771
538.888;  162.173;   98.879;    5.218
539.169;  180.493; -704.122; -535.781
539.450;  334.428;  236.871;   16.233
539.731;  229.402; -361.121; -182.783
540.012;  125.582;  199.880;  412.216
540.293;   96.220;   82.876;  158.224
540.574;   13.166; -895.113; -717.796
540.855;  457.001;  435.879;  377.218
541.136;  547.615;   47.878;  139.220
541.416;  276.573; -161.130; -220.766
541.697;  185.959; -274.131; -170.763
541.978;  968.227; -270.135; -315.757
542.259; 1250.222; -211.127; -236.771
542.539;  598.640; -191.116; -186.790
542.820;  193.966;  461.875;  480.225
543.101;  145.364;  -52.145;  -77.738
543.381;   24.372; -638.127; -591.771
543.662;  267.045;  159.873; -254.771
543.942;  531.418; -751.127; -830.770
544.223; 1012.992;  193.878;  161.219
544.504;  641.900; -275.124; -182.777
544.784;  559.478; -592.126; -408.773
545.065; 1583.018;  104.884; -254.791
545.345; 1910.365;  227.881;   14.215
545.626; 1212.990;  -14.113; -108.796
545.906;  844.565;   77.869;   98.235
546.186;  349.408;   92.874;  -95.773
546.467;  184.452;   99.877;  -95.778
546.747;  299.914;  264.884;  327.210
547.027;  368.273;   91.876;  111.223
547.308;  301.142; -376.127; -530.770
547.588;  386.407;  299.871;  371.232
547.868;  179.892;  458.870;  588.235
548.149;  183.801;  609.885;  593.207
548.429;  112.245; -347.127; -299.771
548.709;  176.632; -645.120; -461.784
548.989;  444.350;   84.882;   88.213
549.269; 1967.074;   10.868;  139.239
549.550; 4552.581;  215.877;  117.222
549.830; 4065.608; -758.111; -556.799
550.110;  788.666; -468.110; -320.801
550.390;  793.087; -128.122;  -56.779
550.670; 1074.861; -868.114; -783.795
550.950;  763.675; -509.121; -471.782
551.230;  175.796;  549.879;  460.218
551.510;   -3.051; -381.121; -326.782
551.790;   33.923; -173.109; -127.803
552.070;  242.427;  940.877; 1181.223
552.350;  377.544; -492.119; -377.786
552.630;  558.319;   -2.121;   77.219
552.909;  306.494;  181.884;   73.209
553.189;  229.130;  -49.132;   33.237
553.469;  173.519; -703.119; -514.786
553.749;  174.574; -469.127; -357.772
554.029;  159.385;   33.883;  -24.790
554.308;  139.730; -154.115;  -37.794
554.588;   63.541; -196.128; -204.770
554.868;   62.676; -366.121;  -47.782
555.147;  139.552; -114.115;  -46.793
555.427;  572.046; -260.116; -250.792
555.707; 3661.950; -284.115; -200.793
555.986; 4428.111; -719.111; -538.800
556.266; 2331.763;   23.884;   72.210
556.546;  118.824; -888.121; -675.782
556.825;  220.659; -657.114; -556.794
557.105; 1687.364; -125.128;   17.230
557.384; 1959.868;  122.884;  187.209
557.664;  764.670; -717.116; -508.792
557.943;   96.975; -557.121; -411.782
558.222;  170.903; -345.118; -344.788
558.502;  259.153; -116.115;  -76.793
558.781;  477.874;  194.885;  499.208
559.061;  386.553; -232.118; -227.788
559.340;  274.258;  302.883;  353.211
559.619;  637.538;   93.884;  148.210
559.899;  958.934; -239.117; -266.789
560.178;  877.603; -778.115; -593.793
560.457; 2914.436; -623.117; -562.790
560.736; 4123.638; -472.111; -482.800
561.015; 2742.937; -500.128; -502.769
561.295;  350.968;  180.893;  215.193
561.574;  339.325;  119.885;  116.207
561.853;  465.453;  274.891;  303.197
562.132;  486.405;  -45.114;  182.206
562.411;  418.495;  396.879;  553.219
562.690;  115.549; -592.115; -458.792
562.969;  111.622;  472.888;  630.203
563.248;  497.517; 2966.878; 2487.219
563.527;  253.412; -290.111; -408.800
563.806;  359.145; -650.127; -521.771
564.085;  392.208; -297.105; -206.810
564.364;  212.562; -594.117; -405.790
564.643;  448.045; -276.121; -223.781
564.922; 1779.672;  221.890;  397.198
565.201; 1747.775; -640.109; -700.803
565.479;  752.197; -297.115; -219.792
565.758;  314.289; -810.128; -712.770
566.037;  455.301; -155.109; -100.803
566.316;  213.393; -286.116;  -28.791
566.595;   40.625;  -17.115;  -12.793
566.873;   84.614; -166.111;  -79.801
567.152;  -63.803; -490.113; -590.797
567.431;    8.464; -113.116;    6.210
567.709;    6.768; -344.107; -212.807
567.988;  248.384; -810.114; -769.794
568.266;  499.875; -160.115;  -68.793
568.545;  349.879; -644.100; -514.819
568.824;  560.422;  160.885;  356.208
569.102;  506.683; -351.114; -235.794
569.381;  216.596; -492.116; -407.792
569.659;  -37.782; -553.113; -553.796
569.938;   38.316; -743.122; -465.780
570.216;  108.129; -225.109; -225.804
570.494;  -24.113; -632.114; -572.795
570.773;   17.174;  202.879;  114.218
571.051;    2.305; -373.123; -357.778
571.330;   53.941; -221.113; -174.796
571.608;   45.022; -181.098; -173.823
571.886;  -62.469; -671.111; -581.799
572.164;  -66.599; -739.121; -621.782
572.443;  -55.138; -562.105; -512.811
572.721;  -31.064; -399.117; -289.790
572.999;  -27.670; -280.117; -168.788
573.277;  107.780;  379.894;  620.191
573.555;  254.857;   94.894;   37.190
573.834; 1240.979;  -86.117; -114.788
574.112; 1456.295;  880.893;  811.193
574.390;  433.313; -143.111;  -96.801
574.668;   -0.052;  -91.112;  -61.797
574.946;  -18.593; -165.106; -187.810
575.224;    3.875;   71.891;  -16.803
575.502;  -19.534; -200.116; -204.791
575.780;  -86.126; -767.112; -829.798
576.058;  229.112; 1589.889; 1004.200
576.336;  -25.807; -210.110; -129.801
576.614;  -44.726; -511.112; -340.798
576.891;   30.529; -711.115; -823.794
577.169;  444.587; -158.108; -285.805
577.447;  541.845;  169.893;  202.193
577.725;  247.904;  629.888;  854.201
578.003;   15.077;  -71.112; -371.798
578.280;   86.545; -208.104; -242.812
578.558;   68.778; -450.115; -422.793
578.836;  134.486; -210.114; -145.795
579.114;   33.898; -630.112; -670.797
579.391;   69.881;   -6.117;  -18.789
579.669;  -75.145; -595.114; -704.794
579.947;  169.442; -326.107; -127.806
580.224;  300.317; -692.107; -524.806
580.502;  293.996;  127.893;   76.193
580.779;    3.787;  -42.117;   75.210
581.057;  -61.021; -584.109; -470.804
581.334; -107.315; -726.102; -695.815
581.612;   26.758;   54.895;  511.190
581.889;  -33.627;  -83.101; -129.818
582.167;  -26.388; -298.099; -190.821
582.444; -111.582; -845.102; -814.817
582.721;  105.544;  657.899;  715.183
582.999;   37.910; -326.100; -167.821
583.276;  485.434; -812.123; -713.779
583.553;  673.013; -364.102; -294.816
583.831;  222.467; -607.104; -631.812
584.108;   52.410;  349.892;  174.195
584.385;   18.710; -122.102;  -98.815
584.662;  -76.386; -651.111; -828.801
584.940;   39.189;  204.889;  204.199
585.217;  -22.432;  -73.113; -303.796
585.494;   46.447;   71.890;  118.198
585.771;  181.705; -250.109; -354.804
586.048;  484.493; -196.113;  -76.796
586.325;  278.267; -721.110; -773.801
586.602;   94.796;  230.896;  213.188
586.879;  -26.369; -499.100; -580.820
587.156;   57.384; -156.105; -331.810
587.433;  -47.109; -701.102; -667.817
587.710;   59.475;  152.888;  234.202
587.987;  280.139; -264.105; -236.811
588.264;  760.702;  315.888;  387.202
588.541; 1269.098;  -61.104;   26.187
588.818; 2554.007;   72.892;  171.196
589.095; 2172.619; -163.104; -174.812
589.371;  353.078; -459.109; -414.804
589.648;   -0.380; -581.107; -437.807
589.925;   26.937; -517.114; -621.795
590.202;   12.400; -741.112; -607.798
590.478;   96.316; -166.105;  -73.811
590.755;  246.238; -241.108; -132.806
591.032; 2300.169; -741.110; -699.802
591.308; 3227.112; -732.094; -790.831
591.585; 1671.594; -573.110; -560.802
591.862;  127.942;-1056.102; -950.817
592.138;   55.911; -475.108; -474.805
592.415;  130.797; -486.104; -495.813
592.691; 1420.369;  460.896;  518.188
592.968; 1773.299; -208.098; -123.824
593.244;  843.539; -695.116; -595.790
593.521;   49.868; -105.102;  -42.817
593.797;  -22.337; -810.122; -720.780
594.074;  314.236; -611.096; -588.826
594.350;  637.147;  828.905;  729.172
594.626;  281.565; -303.111; -283.801
594.903;  111.243; -643.101; -645.817
595.179;  175.725;  243.896;  418.187
595.455;    6.622; -136.107; -150.807
595.731;    6.927;  -19.103;  -38.814
596.008;  -46.491; -464.111; -434.800
596.284;   29.759; -187.100; -242.820
596.560;   59.193; -501.093; -493.833
596.836;  174.911; -173.105;  -70.810
597.112;  320.786; -582.108; -437.805
597.388;  262.484;  -49.097;  -48.826
597.665;  124.520;  437.887;  530.203
597.941;  -78.153; -572.089; -658.839
598.217;   24.047; -323.110; -293.802
598.493;  234.731;   61.891; -204.804
598.769;  496.353; -175.100;  -50.819
599.045;  274.389; -490.108; -562.806
599.321;   55.208; -193.100; -261.820
599.597;  103.656; -355.109; -476.804
599.872;  457.998;  409.896;  429.187
600.148;  339.161;  -61.097; -172.826
600.424;  287.469;   91.893;  202.193
600.700;  219.246; -170.107; -280.807
600.976;  102.380; -442.097; -464.825
601.252;  230.377; -226.109; -272.803
601.527;  192.949; -833.104; -840.813
601.803;  129.667; -453.105; -404.812
602.079;  177.853; -124.100; -118.819
602.354;  505.803; -620.092; -531.835
602.630;  762.268; -140.113; -482.796
602.906; 2138.148; -910.101; -863.818
603.181; 6300.644; -627.119; -534.786
603.457; 5316.359;   98.903; -278.826
603.733;  778.753; -605.120; -626.783
604.008;  899.408; -245.106; -164.810
604.284; 2890.820; -636.101; -580.817
604.559; 2493.729;   -3.112;  -42.799
604.835;  482.161; -163.105; -225.810
605.110;  374.038; -732.099; -892.821
605.385;  658.771;  224.907;  267.167
605.661;  616.675; -625.095; -729.829
605.936; 1083.165; -664.108; -737.806
606.211;  913.558;  -17.103; -170.815
606.487;  189.932; -329.114; -376.794
606.762;   -8.231; -791.119; -745.786
607.037;  -15.214; -501.105; -433.810
607.313;  -56.931; -589.096; -574.828
607.588;   -4.867; -375.106; -137.810
607.863;   24.798;  -28.101; -143.818
608.138;  171.371;  513.890;  516.198
608.413;   11.617; -576.099; -592.822
608.688;   41.511; -203.108; -267.805
608.964;  176.152; -509.106; -218.809
609.239;  226.183; -107.105; -212.810
609.514;  226.416;  281.895;  240.188
609.789;  627.796; -187.104; -716.812
610.064;  816.792; -435.096; -609.827
610.339;  803.378; -855.109; -799.804
610.614; 1096.808; -131.100; -315.820
610.889;  621.966;  215.895;  107.188
611.163;   13.167; -407.104; -591.812
611.438;   87.659;   81.886; -167.794
611.713;   -9.380; -467.101; -499.817
611.988;   49.447; -144.101; -328.818
612.263;  -43.090; -771.102; -717.815
612.538;  200.417;  385.887;  251.204
612.812;  147.709; -832.100; -911.820
613.087;  112.672; -358.098; -338.823
613.362;  -47.278; -497.107; -557.807
613.637;   47.530;  261.897;  138.186
613.911;  -17.797; -256.092; -345.835
614.186;  120.870; -249.107; -292.807
614.460;  607.046; -842.081; -758.854
614.735;  733.245;  -55.087;  -17.843
615.010;  137.210;   43.912;  -82.841
615.284;  238.360;  360.892;  246.195
615.559;  346.952; -792.092; -955.835
615.833;  274.690;  -76.099;  -87.822
616.108;   -2.736; -225.090; -390.837
616.382;  137.972;  274.913;  402.156
616.656;  147.714; -241.090; -232.837
616.931;  458.165; -785.099; -700.822
617.205; 1005.375; -973.104; -979.813
617.480;  912.514;  -91.125;    6.225
617.754;  143.112; -396.125; -128.774
618.028;   -1.292; -369.129; -382.768
618.302;   70.584;   73.892;  -25.805
618.577;  -40.969; -371.103; -518.815
618.851;  -67.576; -399.109; -600.803
619.125;  -35.761; -335.134; -378.759
619.399;  -39.375; -244.104; -374.813
619.673;  -58.928; -330.115; -515.792
619.947;  -49.989; -333.114; -448.795
620.222;   -3.935; -198.110; -204.801
620.496;   -3.749;  -47.121;  -96.782
620.770;   18.417; -187.122;  -93.781
621.044;  186.284;  323.895;  346.190
621.318;  689.178; -653.120; -614.783
621.592;  611.276; -430.121; -409.783
621.866;  337.380; -476.112; -572.799
622.140;   10.666; -207.116; -356.791
622.413;   64.484;  138.889;  112.200
622.687;  -36.655; -746.101; -492.817
622.961;   12.359; -130.108; -143.805
623.235;  -76.990; -633.111; -661.800
623.509;  -96.234; -816.105; -848.811
623.783;   12.768;  -12.107;   48.193
624.056;  -19.470; -254.120; -280.783
624.330;   45.173;   63.888;   -3.797
624.604;   38.737; -271.116; -355.790
624.877;   57.920;  180.890;   26.198
625.151;   30.956; -249.114; -238.794
625.425;  -38.923; -150.103; -283.814
625.698;  -53.311; -367.119; -374.785
625.972; -104.178; -799.110; -765.802
626.245;   76.464;  685.884;  484.210
626.519;  -50.091; -426.120; -340.784
626.792;  -29.779; -192.107; -380.807
627.066;  -92.315; -485.122; -662.779
627.339;  -91.757; -736.110; -663.802
627.613;   32.932;  351.880;  148.216
627.886;   58.774;  187.891; -612.803
628.160;  -17.472;  312.880; -161.783
628.433;  -88.833; -695.125; -703.775
628.706;  -85.641; -517.120; -615.784
628.979;   34.673;  296.876;  117.223
629.253; -106.481; -785.119; -833.786
629.526;  338.177; -334.126; -253.772
629.799;  303.705; -641.123; -479.778
630.072;  133.659; -497.128; -516.769
630.346;  -74.411;-1115.116;-1080.790
630.619;  443.697; -467.107; -545.808
630.892;  582.660;  709.889;  593.200
631.165;  308.525;  790.896;  679.187
631.438;  -93.523;-1092.112;-1055.798
631.711;   64.958;  453.877;  257.221
631.984;  -70.065; -523.117; -624.789
632.257;  -64.994; -636.117; -681.789
632.530;  -65.386; -412.119; -433.785
632.803;   21.754; -109.115;    7.207
633.076;  -75.273; -360.123; -422.777
633.349;   -4.987;  173.872;  121.231
633.622;  -36.737; -187.119; -240.785
633.895; -114.796; -903.120; -823.783
634.167;  -75.796; -496.126; -525.773
634.440;   -4.754;  -19.116; -137.792
634.713;  -15.383;  -22.119; -120.786
634.986;   78.828;  593.871;  453.233
635.258;  -91.023; -507.115; -597.793
635.531;   91.677;  742.882; -343.788
635.804;  -26.517; -303.117; -318.789
636.077;  -77.958; -830.116; -852.791
636.349;  -10.649; -586.115; -474.793
636.622;  365.326; 1695.874; 1392.228
636.894;  211.334; -474.120; -909.784
637.167;  142.495; -836.127; -789.771
637.439;   21.391; -278.128; -213.770
637.712;  -45.972; -312.126; -293.772
637.984;  -89.308; -635.116; -707.791
638.257;  359.878;  515.877;  488.222
638.529;  527.168; -881.125; -924.776
638.802;  242.809; -508.128; -449.769
639.074; -121.108; -927.122; -952.781
639.346; -120.820; -942.135; -930.757
639.619;   -2.709;  -79.142; -319.744
639.891;   -3.040;  -83.122; -168.779
640.163;  -69.913; -689.122; -756.780
640.435;   24.964;  273.878;  103.220
640.708;   -7.134;  -72.122; -132.780
640.980;  -22.182; -366.122; -362.781
641.252;  172.795;  -25.121;  -71.781
641.524; 1718.221;  580.879;  573.219
641.796; 1750.123;-1094.121; -907.782
642.068;  326.450; -191.121; -300.782
642.340;  -55.123; -486.121; -566.783
642.613;   39.254;  294.880;  323.217
642.885; -105.245; -787.120; -878.783
643.157;  -47.968; -810.120; -658.784
643.428;   54.909;  170.880;  218.216
643.700;  -72.614; -498.120; -425.784
643.972;  -45.412;  -16.119; -133.785
644.244;  -85.661; -474.119; -559.785
644.516;  -54.784; -250.119; -114.786
644.788;   58.918;  662.881;  548.214
645.060;  -36.705;  -12.119; -124.786
645.332;  -96.603; -525.118; -535.787
645.603;   23.848;  479.882;  342.213
645.875;  -85.725; -334.118; -369.787
646.147;  144.502; 1487.882; 1242.212
646.418;  -76.946; -931.117; -918.788
646.690;  109.706; -714.117; -715.789
646.962;   29.582; -413.117; -451.789
647.233;  -24.366;   15.883;   11.211
647.505; -103.339; -595.117; -475.790
647.776;    5.363;  328.884;  229.210
648.048;    6.365; -248.116; -418.790
648.320;  -80.583; -752.116; -679.791
648.591; -148.357;-1055.116; -958.791
648.862;  -92.580; -505.116; -577.792
649.134;   17.272;  115.885;  198.208
649.405;  -52.376; -661.115; -618.792
649.677;  -63.499; -475.115; -598.793
649.948;   -6.923; -181.115; -296.793
650.219;   -9.646;  -37.115; -147.793
650.491;  -92.444; -431.114; -520.794
650.762; -110.192; -705.114; -731.794
651.033;  -96.615; -437.114; -424.795
651.304;  -74.689; -743.114; -728.795
651.576;  -70.837; -680.114; -645.795
651.847;  -29.885; -250.113; -140.796
652.118;  -36.208;  -32.113; -189.796
652.389; -104.856; -639.113; -722.796
652.660;  -44.430; -147.113;  -89.797
652.931; -139.578; -897.112; -871.797
653.202;  -91.876; -382.112; -541.798
653.473;  -63.899; -633.112; -533.798
653.744;  133.728; -595.112; -590.798
654.015;  132.779; -356.112; -303.799
654.286;  -80.194; -642.111; -663.799
654.557;  -58.867; -586.111; -521.799
654.828; -164.540;-1114.111;-1088.800
655.099;  -79.638; -404.111; -291.800
655.370;  -88.062; -427.111; -543.801
655.641; -117.210; -656.110; -714.801
655.911; -119.433; -618.110; -638.801
656.182;   47.794;  437.890;  387.198
656.453;   75.571;  830.890;  746.198
656.724;  -67.452; -466.110; -426.802
656.994;  -89.851; -553.109; -568.803
657.265; -100.224; -862.109; -873.803
657.536;  -87.722; -500.109; -377.804
657.806;  -96.595; -561.109; -593.804
658.077; -138.243; -866.109; -950.804
658.347;  -81.692; -523.108; -598.805
658.618; -126.115; -646.108; -694.805
658.888;  -10.338;  -41.108;  112.195
659.159;  -77.886; -432.108; -548.806
659.429;  -20.334; -292.108; -349.806
659.700;   -6.308; -435.107; -390.807
659.970;   -9.756; -370.107; -359.807
660.241;  -12.154; -754.107; -921.807
660.511;  465.448; -147.107; -174.808
660.781;   62.925; -793.106; -748.808
661.052;  -43.149; -222.106; -381.808
661.322;  -18.147;   21.894;   -9.809
661.592;    2.230;  257.894;  148.191
661.862;  -67.193; -369.106; -382.810
662.133;  -97.041; -551.105; -502.810
662.403; -125.265; -770.105; -676.810
662.673;  -59.613; -256.105; -213.811
662.943; -105.686; -612.105; -551.811
663.213;   -2.934;  -85.105;  -81.811
663.483;  -82.657; -593.104; -568.812
663.753;  -37.830; -194.104; -152.812
664.023;  -32.404;   68.896;  -32.813
664.293;  -60.452; -319.104; -126.813
664.563; -119.200; -694.104; -648.813
664.833; -115.473; -743.103; -608.814
665.103; -128.221; -730.103; -793.814
665.373; -112.045; -766.103; -806.814
665.643;  -92.493; -863.103; -918.815
665.913;   24.209; -534.103; -714.815
666.182;  131.011; -685.102; -719.816
666.452;  242.788;  -22.102;  -89.816
666.722;  -32.336; -724.102; -784.816
666.992; -136.859; -948.102; -921.817
667.261; -100.557; -824.102; -808.817
667.531;  194.495;  134.899;   45.183
667.801;  540.847; -440.101; -412.818
668.070;  234.848;  714.899;  697.182
668.340; -111.800; -883.101; -840.819
668.609;   86.627;  588.900;  301.181
668.879;  -86.096; -490.100; -558.819
669.149;  -79.119; -539.100; -516.820
669.418; -107.343; -698.100; -726.820
669.688;  -37.441; -482.100; -666.820
669.957;   67.886; -423.099; -546.821
670.226;  -27.487; -268.099; -331.821
670.496;  -98.260; -431.099; -635.822
670.765;  -87.408; -418.099; -501.822
671.034; -140.107; -872.099; -828.822
671.304;    4.670;   55.902; -111.823
671.573; -147.603;-1085.098; -957.823
671.842;   77.749; -380.098; -294.823
672.112;   13.526; -692.098; -586.824
672.381;   -6.198; -239.098; -214.824
672.650; -143.771;-1005.097;-1021.825
672.919;  -86.144; -631.097; -507.825
673.188; -104.417; -681.097; -878.825
673.457; -147.040;-1101.097;-1143.826
673.726;  -74.914; -579.096; -646.826
673.995;  -36.162; -533.096; -479.826
674.265;  -39.410; -263.096; -333.827
674.534;   -2.483; -183.096; -235.827
674.802;   -9.706; -618.096; -703.828
675.071;  899.620; -886.095; -801.828
675.340; 3647.022; -464.095; -339.828
675.609; 1246.299;  103.905;   82.171
675.878;   49.801; -949.095; -893.829
676.147;   33.753;  -26.095;   -8.829
676.416;   63.879; -210.094; -294.830
676.685;  685.856; 1000.906; -622.830
676.953;   81.783; -603.094; -452.831
677.222;  -31.515; -193.094; -273.831
677.491;  -38.538;  -24.094; -127.831
677.759;  -15.736;   11.907;  172.168
678.028;  -27.985; -279.093; -222.832
678.297;   -3.833;   71.907;  197.168
678.565; -137.806; -898.093; -944.833
678.834;  -63.104; -311.093; -268.833
679.102;  -65.402; -411.092; -391.834
679.371; -137.001; -898.092; -727.834
679.639; -131.649; -797.092; -786.834
679.908; -112.472; -794.092; -724.835
680.176; -163.545; -895.091; -941.835
680.445;  -88.243; -346.091; -352.835
680.713;  -26.267;  -58.091;  -23.836
680.982;  -82.490; -523.091; -525.836
681.250; -113.813; -578.091; -507.837
681.518; -101.611; -534.090; -751.837
681.787;  -19.884; -204.090; -167.837
682.055;  -51.483; -490.090; -422.838
682.323; -151.231; -993.090; -992.838
682.591;   21.646; -216.090; -538.838
682.859;   69.873;    9.911;  -35.839
683.128;   18.900;  232.911;  497.161
683.396; -167.199;-1102.089;-1122.840
683.664;  -39.622; -241.089;   21.160
683.932;    7.230;  144.911;  -76.840
684.200;  -86.143; -576.088; -320.841
684.468;  -32.466;  -73.088; -124.841
684.736;  -43.665; -214.088; -175.841
685.004; -121.663;-1024.088; -982.842
685.272;  -50.836; -880.088; -774.842
685.540;  -90.234; -499.087; -557.843
685.808;  -87.107; -651.087; -682.843
686.076; -121.980; -894.087; -969.843
686.343;  -58.079; -601.087; -815.844
686.611;   30.973; -195.087; -224.844
686.879;  411.325; -530.086; -553.844
687.147; 3106.952; -483.086; -480.845
687.414;  888.379;  -12.086; -169.845
687.682;  -12.870; -658.086; -757.846
687.950;  292.307;  259.915;  263.154
688.217;    5.559; -792.085; -760.846
688.485;  -15.589; -632.085; -636.847
688.753;  469.788;  -11.085; -102.847
689.020;  161.014; -820.085; -851.847
689.288; -103.959; -853.084; -787.848
689.555;  -36.307; -195.084; -148.848
689.823;  -50.180; -241.084; -345.849
690.090;  -85.353; -546.084; -651.849
690.358; -162.552; -877.084; -897.849
690.625;    2.600;  120.917;   45.150
690.892;  -83.323; -403.083; -369.850
691.160;   -9.371;   72.917;  -35.850
691.427;   -5.319;  141.917;  130.149
691.694; -131.093; -855.083; -929.851
691.962; -156.791;-1177.082;-1060.852
692.229;   20.011;  127.918;   56.148
692.496;   59.338;  130.918;  -49.852
692.763;   18.415; -164.082; -201.853
693.031;  -80.158; -739.082; -716.853
693.298;  -36.932; -509.081; -368.853
693.565;  269.320; -155.081; -163.854
693.832; 1207.072;   -5.081;   -9.854
694.099;  130.849; -643.081; -642.855
694.366;  -67.299; -882.081; -896.855
694.633;  -51.698; -920.080; -633.855
694.900;  738.829; 4367.920; -114.856
695.167;  399.456; -214.080; -380.856
695.434;   87.283; -646.080; -623.856
695.701;  178.385;  121.921;  -61.857
695.968;  454.486; -365.079; -361.857
696.234;  948.638; -415.079; -646.858
696.501;10227.265; -776.079; -614.858
696.768; 5338.667; -554.079; -617.858
697.035;  320.369; -632.078; -667.859
697.302;   27.520; -448.078; -552.859
697.568;   15.672; -458.078; -497.859
697.835;  -38.376; -683.078; -624.860
698.102;  -25.624; -498.078; -407.860
698.368;   66.928;  384.923;  396.139
698.635;  -36.546;  -47.077; -424.861
698.901;  -30.869; -240.077; -348.861
699.168;   58.883; -534.077; -456.862
699.435;   64.260;  -72.077;  -13.862
699.701; -114.263; -868.076; -764.862
699.968;   -2.311;  144.924; -441.863
700.234;  -76.860; -783.076; -822.863
700.500;  -74.608; -448.076; -539.864
700.767;    5.194;   -1.075;   26.136
701.033; -129.479;-1015.075; -963.864
701.299;  -51.752; -450.075; -483.865
701.566;   93.424;  950.925;  763.135
701.832;   18.001;  -31.075;  -76.865
702.098; -106.722;-1054.074;-1034.866
702.365;  -77.995;-1098.074;-1030.866
702.631;  -38.393;-1038.074;-1063.867
702.897; 1284.908; -765.074; -676.867
703.163; 2178.735;  348.926;  254.133
703.429;  141.037; -256.073; -273.868
703.695;  -39.311; -796.073; -792.868
703.961;   14.491; -214.073; -210.868
704.227;  -53.358; -630.073; -725.869
704.493;  136.069;  613.927;  510.131
704.759;  -23.554; -565.072; -540.870
705.025;   32.048; -203.072; -194.870
705.291;   -6.400; -666.072; -562.870
705.557;  201.601;  719.928;   34.129
705.823;   22.253; -742.072; -694.871
706.089;  153.980; -307.071; -326.871
706.355;  341.507; -315.071; -244.872
706.620; 5556.209; -776.071; -729.872
706.886; 7897.986; -309.071; -362.873
707.152;  755.312; -818.070; -973.873
707.418;  -28.661;-1153.070;-1186.873
707.683;   -0.059; -550.070; -530.874
707.949;  -40.707; -547.070; -578.874
708.215;   -0.855; -129.070; -207.874
708.480;  -29.129; -520.069; -420.875
708.746;   92.098;   68.931;   28.125
709.011;  -59.900; -578.069; -612.876
709.277;  -75.448; -538.069; -543.876
709.542;  -65.096; -428.069; -387.876
709.808;   -1.370;  -59.068;   89.123
710.073;  -83.568; -577.068; -695.877
710.339;  -30.941; -242.068; -228.877
710.604;   56.136; -780.068; -845.878
710.869;  303.888; -277.068; -366.878
711.135;  -68.386; -715.067; -628.879
711.400;  -74.259; -507.067; -608.879
711.665;  -52.257; -404.067; -479.879
711.931;  -87.680; -661.067; -677.880
712.196; -120.303; -876.067; -954.880
712.461;   86.848; -402.066; -490.880
712.726;  124.600; -727.066; -771.881
712.991;  -80.848; -647.066; -664.881
713.256;  -51.071; -350.066; -332.882
713.521;  -48.894; -417.065; -381.882
713.787;  -78.718; -454.065; -472.882
714.052;  -30.491; -214.065; -400.883
714.317;  -88.814;-1045.065; -981.883
714.581; 1012.013; -374.065; -268.883
714.846; 1446.065; -822.064; -888.884
715.111;  128.092;  261.936;  257.116
715.376;  -37.132;  -86.064; -223.885
715.641;  -23.655; -365.064; -367.885
715.906;  259.947;   15.936; -551.885
716.171;  138.974;  221.937;  209.114
716.436;   28.676;  -78.063; -104.886
716.700;  -96.623; -818.063; -692.886
716.965; -134.671; -794.063; -807.887
717.230;  -89.269; -339.063; -392.887
717.494;  -20.767;  -40.062; -134.888
717.759;  -97.115; -784.062; -640.888
718.024;    9.886;  269.938;  250.112
718.288;   65.488;  685.938;  395.111
718.553; -146.485; -803.062; -977.889
718.817; -135.208; -883.061; -899.889
719.082;  -42.081; -115.061; -125.890
719.346; -138.605;-1000.061; -947.890
719.611;  -61.228; -300.061; -255.891
719.875;  -99.226; -568.060; -537.891
720.140;  -80.374; -453.060; -603.891
720.404;   29.378; -136.060; -249.892
720.668;  792.354; -475.060; -411.892
720.933;  321.606;  146.940;  137.108
721.197; -113.992; -667.059; -600.893
721.461; -129.115; -851.059; -826.893
721.725;  -25.788;  -21.059; -250.894
721.990;  -54.386; -284.059; -204.894
722.254;  -40.010;  -26.059; -108.894
722.518;  -57.858; -286.058; -442.895
722.782;  -93.581; -743.058; -594.895
723.046;  120.871;  614.942;  570.105
723.310;    6.773;  374.942;  210.104
723.574;  -96.976; -654.058; -614.896
723.838; -125.524; -576.057; -642.897
724.102;  -50.322; -226.057; -239.897
724.366; -144.195;-1032.057; -978.897
724.630;  -93.668; -749.057; -571.898
724.894;  -88.392; -722.057; -514.898
725.158;  -15.840;   38.944; -295.898
725.422;  -75.838; -394.056; -327.899
725.685;  -63.311; -441.056; -349.899
725.949;  -84.834; -566.056; -519.900
726.213;  -79.408; -732.056; -811.900
726.477;  139.319;-1020.055; -933.900
726.740;  145.571; -274.055; -104.901
727.004;  312.923; -384.055; -510.901
727.268; 3287.775; -442.055; -400.901
727.531;  951.101; -961.055; -775.902
727.795;  -48.797; -713.054; -673.902
728.059;  -71.345; -552.054; -557.903
728.322;  -71.118; -841.054; -669.903
728.586;   18.959; -692.054; -701.903
728.849;  -81.664; -695.053; -756.904
729.112; -121.313; -812.053; -912.904
729.376; -122.936; -959.053; -905.904
729.639;  -99.634; -536.053; -536.905
729.903; -103.882; -733.053; -699.905
730.166;  -70.155; -437.052; -399.906
730.429;  -25.079; -317.052; -468.906
730.693;  -70.002; -355.052; -894.906
730.956;  190.725;  810.948;  651.093
731.219;  665.602; -310.052; -103.907
731.482;  104.454;-1003.051; -894.907
731.745;   69.330; -794.051; -935.908
732.009;   20.257;  -30.051;   50.092
732.272; -111.241; -904.051; -771.909
732.535;  -43.464; -300.051; -310.909
732.798; -165.587;-1083.050;-1166.909
733.061;  -67.611; -430.050; -456.910
733.324;   -5.234;   31.950; -180.910
733.587;   69.218;  290.950;  365.090
733.850;  -67.480; -973.049;-1050.911
734.113;   31.422;   33.951;   32.089
734.376;   -4.902; -328.049; -447.912
734.639;  217.375; 1188.951; 1011.088
734.901;   40.952; -180.049; -402.912
735.164;  479.204; -883.048; -837.913
735.427; 1258.781; -166.048; -355.913
735.690;  107.933; -205.048; -234.913
735.952;  -39.466; -923.048; -925.914
736.215;  -27.889;-1113.048;-1009.914
736.478;   35.838; -771.047; -774.915
736.740;  207.940;   33.953;  129.085
737.003;  596.392; -658.047; -672.915
737.266; 3868.918;  -94.047;   46.084
737.528;  412.520; -682.047; -660.916
737.791;  297.122; -316.046; -327.916
738.053;  774.724;  465.954;  649.083
738.316;10597.876; -162.046; -136.917
738.578; 7773.577; -770.046; -736.918
738.841;  450.104; -382.046; -446.918
739.103;  156.606; -875.045; -777.918
739.365;  489.083;   79.955;  -69.919
739.628;  -15.040; -884.045; -805.919
739.890;  -28.764; -758.045; -710.919
740.152;  -59.087; -692.044; -754.920
740.414;   -2.710; -408.044; -359.920
740.677;  -42.933; -785.044; -634.921
740.939;  -48.006; -587.044; -487.921
741.201;  231.445; -432.044; -572.921
741.463;   38.322; -689.043; -745.922
741.725;    3.824;  -21.043; -199.922
741.987;   37.026;  220.957;  116.078
742.249;    6.053; -751.043; -859.923
742.511;  205.104; -703.043; -794.923
742.773;   14.181; -546.042; -546.924
743.035;  140.383;  796.958;  533.076
743.297;  -61.015; -963.042;-1013.924
743.559;  700.287; -278.042; -262.925
743.821;   57.964; -735.042; -744.925
744.083;   15.965;  -44.041; -149.925
744.345; -103.983; -869.041; -892.926
744.607;   38.044;   75.959;  122.074
744.868;  -63.804; -490.041; -554.927
745.130;  -99.327; -994.041;-1008.927
745.392;   27.324;   -1.040;  -44.927
745.653;  -15.249; -411.040; -378.928
745.915;  142.803;  896.960;  631.072
746.177;   56.155;   35.960;  -43.928
746.438;  -16.643; -428.040; -543.929
746.700;  -44.092; -947.039; -988.929
746.961;    5.835; -659.039; -740.930
747.223;  132.187; -190.039;  -74.930
747.484;   79.314; -391.039; -471.930
747.746;  139.616;  -23.038; -106.931
748.007;   99.067; -647.038; -689.931
748.269;  273.119; -468.038; -440.931
748.530;  469.696; -852.038; -638.932
748.791;  237.623; -354.038; -420.932
749.053;  424.475;  286.963;  163.067
749.314;  452.401; -236.037; -169.933
749.575;  489.428; -945.037; -905.933
749.836;  814.480; -217.037;   86.066
750.098; 2302.282;  -60.037;  -21.934
750.359;35214.684;  414.964;  555.066
750.620; 9403.586; -121.036; -220.935
750.881;  981.362; -585.036; -513.935
751.142; 1273.689; -950.036; -938.936
751.403;16159.216; -789.036; -705.936
751.664; 7533.643;-1034.035; -999.936
751.925;  512.395; -175.035; -262.937
752.186;  265.971; -298.035; -278.937
752.447;  133.423; -590.035; -445.937
752.708;   46.600; -532.035; -648.938
752.969;   11.702; -566.034; -576.938
753.230;    0.979; -777.034; -672.939
753.491;   -1.895; -650.034; -631.939
753.751;   54.407;  109.966;   19.061
754.012;   88.734;  258.967;  181.060
754.273;   52.711; -174.033;  -71.940
754.534;    2.338; -487.033; -580.940
754.794;  -93.111; -926.033; -911.941
755.055;  138.791; 1051.967;  881.059
755.316;  -42.607; -700.032; -566.942
755.576;  -25.205; -606.032; -576.942
755.837;  -49.628; -527.032; -695.942
756.097;  -36.602; -530.032; -564.943
756.358;  -88.400; -725.032; -770.943
756.618;  -48.973; -705.031; -641.943
756.879;   -5.246; -254.031; -349.944
757.139; -118.319;-1098.031;-1116.944
757.400;  -58.917; -538.031; -553.945
757.660;  -23.641; -365.031; -401.945
757.920;    8.061; -266.030; -228.945
758.181;  -12.612; -468.030; -351.946
758.441;  -94.035; -870.030; -809.946
758.701;  -21.858; -308.030; -215.946
758.961;  -44.432; -220.030; -278.947
759.222;  -46.030; -574.029; -502.947
759.482;  -82.328; -683.029; -723.948
759.742;  -80.576; -706.029; -547.948
760.002;    6.126;  -83.029; -143.948
760.262;   14.602;   50.972;  182.051
760.522;  -47.121; -498.028; -574.949
760.782;  -54.194; -738.028; -612.949
761.042;  -46.067; -618.028; -573.950
761.302;   51.585;   55.972;  -18.950
761.562;   48.361; -164.027; -154.951
761.822;   84.738; -710.027; -551.951
762.082;  -48.060;-1104.027;-1093.951
762.342;   71.592; -328.027; -403.952
762.601;   76.994; -567.027; -506.952
762.861;  354.120; -281.026; -207.952
763.121;  388.097; -406.026; -411.953
763.381; 7172.849; -499.026; -485.953
763.640; 8330.976; -139.026; -307.954
763.900;  360.503; -242.026; -203.954
764.160;   81.905; -458.025; -491.954
764.419;   -8.119; -726.025; -782.955
764.679;  -76.967; -795.025; -726.955
764.939;   -9.740; -124.025; -210.955
765.198;  -91.763; -608.025; -563.956
765.458;  -76.436; -710.024; -612.956
765.717;  -90.385; -454.024; -590.957
765.976;  -57.008; -428.024; -411.957
766.236;  -92.181; -475.024; -610.957
766.495;   15.546;  260.977;   73.042
766.755; -105.402;-1090.023; -987.958
767.014;   22.024; -594.023; -665.958
767.273;  -59.524; -373.023; -397.959
767.533;  -56.272; -228.023; -307.959
767.792;  -49.770; -151.022; -188.960
768.051;  -59.093; -228.022; -276.960
768.310;  -96.717; -546.022; -650.960
768.569;  -11.840; -161.022;    4.039
768.828;  -37.863; -285.022; -363.961
769.088; -114.811;-1050.021; -942.961
769.347;  -79.809; -755.021; -599.962
769.606;  -98.758; -876.021; -857.962
769.865; -122.206;-1016.021;-1033.963
770.124;   10.796; -411.021; -336.963
770.383;  -63.127; -778.020; -910.963
770.641;    4.000; -398.020; -400.964
770.900;  -77.899; -953.020; -846.964
771.159;  -45.272; -851.020; -951.964
771.418;   -9.545; -917.020; -779.965
771.677;  115.257; -224.019; -293.965
771.936;  136.159; -794.019; -865.966
772.194; 2100.586; -465.019; -437.966
772.453;11354.762; -213.019; -391.966
772.712;  804.014;  416.982;  329.033
772.970;  112.991;   32.982;   63.033
773.229;   77.143;  -22.018;  102.033
773.488;  -90.680; -814.018; -770.968
773.746;   50.196;  296.982;  335.032
774.005;  -19.877;  190.983;  -22.969
774.263;    3.900;  243.983;  177.031
774.522;  -63.848; -422.017; -548.969
774.780;  -85.421; -484.017; -417.970
775.039; -110.895; -551.017; -531.970
775.297;  -28.468; -135.016; -351.970
775.555; -111.766; -489.016; -612.971
775.814; -123.864; -618.016; -570.971
776.072; -135.537; -749.016; -740.971
776.330;  -96.411; -630.016; -520.972
776.589; -127.009; -703.015; -721.972
776.847; -105.557; -645.015; -624.973
777.105; -167.405;-1016.015;-1032.973
777.363;  -83.303; -459.015; -454.973
777.621; -135.977; -660.015; -717.974
777.879;  -18.975;  -42.014;   32.026
778.138;  -98.548; -554.014; -717.974
778.396;  -94.096; -585.014; -526.975
778.654; -191.844;-1015.014; -970.975
778.912;  -72.117; -269.014; -371.976
779.170; -130.991; -880.013; -803.976
779.427; -143.389; -922.013; -897.976
779.685; -134.562; -880.013; -832.977
779.943;  -85.960; -654.013; -593.977
780.201; -164.883; -964.012; -883.978
780.459; -120.682; -651.012; -610.978
780.717;  -96.730; -440.012; -390.978
780.974;  -96.753; -449.012; -490.979
781.232;  -84.626; -358.012; -338.979
781.490;  -75.949; -551.011; -472.979
781.747; -116.298; -555.011; -476.980
782.005;   13.829;  462.989;  254.020
782.263; -170.269; -542.011;-1004.981
782.520;  -87.692; -326.011; -501.981
782.778; -171.015;-1013.010;-1051.981
783.035; -167.164; -962.010; -938.982
783.293;  -85.237; -248.010; -206.982
783.550;  -54.635; -134.010; -198.982
783.808; -144.258; -764.010; -776.983
784.065; -151.081; -745.009; -874.983
784.322;  -68.430;   25.991;  -86.984
784.580; -142.528; -915.009; -771.984
784.837; -108.901; -392.009; -466.984
785.094; -131.749; -783.009; -762.985
785.352;  -93.197; -304.008; -404.985
785.609; -114.070; -934.008; -839.985
785.866;  -79.344; -345.008; -401.986
786.123;  -83.967; -639.008; -583.986
786.380; -107.765; -665.008; -604.987
786.637;  -46.913; -225.007; -380.987
786.895;  -26.386; -456.007; -543.987
787.152;  -51.710; -135.007; -267.988
787.409;  -54.983; -123.007; -225.988
787.666;  -82.581; -299.006; -378.988
787.923; -114.954; -616.006; -695.989
788.179;  -93.577; -551.006; -584.989
788.436; -120.226; -585.006; -585.990
788.693;  -45.024;  -92.006;  -87.990
788.950;  121.478; -125.005; -112.990
789.207;  189.805; -381.005; -372.991
789.464;  -59.218; -161.005; -301.991
789.720;  -16.817;  150.995;  110.009
789.977; -180.415;-1003.005; -671.992
790.234;  -28.788;   44.996;  -66.992
790.490; -154.836; -884.004;-1031.993
790.747;  -26.484;  -85.004;   22.007
791.004;  -52.633; -426.004; -348.993
791.260;  -79.581; -430.004; -560.994
791.517; -113.404; -843.003; -788.994
791.773;  -62.577; -379.003; -342.994
792.030; -115.150; -596.003; -660.995
792.286;  -99.873; -686.003; -636.995
792.543;  -28.572;  -74.002; -159.995
792.799;  -65.595; -584.002; -382.996
793.055; -159.018;-1179.002;-1210.996
793.312;  -84.941; -827.002; -816.997
793.568;  -60.589; -746.002; -599.997
793.824;    5.262; -226.001; -284.997
794.081;    2.714; -447.001; -508.998
794.337;   51.991; -664.001; -561.998
794.593; 1206.468; -319.001; -271.999
794.849; 6542.945; -746.001; -772.999
795.105;  330.371; -270.000; -261.999
795.361;    8.973; -490.000; -457.000
795.617;  -85.750; -875.000; -945.000
795.873;  -48.400; -360.000; -407.000
796.129;  -49.850; -368.000; -306.000
796.385;  -24.700; -124.000; -156.000
796.641;   57.025;  412.000;  550.000
796.897;  -82.975; -666.000; -635.000
797.153;   50.350;  453.000;  357.000
797.409;  -95.475; -785.000; -868.000
797.665;  -65.500; -625.000; -732.000
797.921;  -79.200; -775.000; -762.000
798.176;  -63.825; -744.000; -747.000
798.432;  -51.725; -824.000; -596.000
798.688;  -89.025;-1174.000;-1078.000
798.943;   75.000; -165.000; -147.000
799.199;   -5.525;-1005.000; -959.000
799.455;  229.600;  369.000;  316.000
799.710;  130.175; -813.000; -380.000
799.966;  317.650; -162.000; -160.000
800.221;  471.025; -638.000; -721.000
800.477;10084.500; -743.000; -710.000
800.732; 9628.050; -773.000; -800.000
800.988;  645.625;  205.000;  -19.000
801.243; 1733.825; -454.000; -344.000
801.498; 8183.300; -814.000; -739.000
801.754;  479.650; -289.000; -163.000
802.009;   84.875; -257.000; -335.000
802.264;  -56.300; -967.000;-1033.000
802.520;   30.450;  222.000;   -3.000
802.775;  -48.025; -524.000; -359.000
803.030;   53.725;  395.000;  356.000
803.285; -116.950; -840.000; -903.000
803.540;  -53.175; -686.000; -699.000
803.795;  -57.725; -648.000; -583.000
804.051;  -52.450; -279.000; -346.000
804.306;   -4.400;  168.000;  128.000
804.561;  130.300;  451.000;  362.000
804.816;  111.425;  714.000;  861.000
805.071;    1.550; -185.000; -280.000
805.325;  206.350; -257.000; -427.000
805.580;  -87.450; -841.000; -877.000
805.835;  -32.200; -204.000; -297.000
806.090;  -86.000; -760.000; -676.000
806.345;  -38.725; -344.000; -264.000
806.600;  -37.875; -549.000; -632.000
806.854;  -30.450; -408.000; -538.000
807.109;  -17.625; -493.000; -577.000
807.364;   -8.700; -407.000; -328.000
807.618;   -9.875; -415.000; -381.000
807.873;   37.825; -470.000; -494.000
808.128;   85.875; -257.000; -518.000
808.382;   93.825; -224.000; -332.000
808.637;   75.100; -440.000; -511.000
808.891;  159.825; -257.000; -180.000
809.146;  102.625; -902.000; -794.000
809.400;  263.975; -848.000; -923.000
809.654;  327.925; -779.000; -551.000
809.909;  455.250; -841.000; -927.000
810.163; 6030.850; -813.000; -651.000
810.418;16940.100; -940.000; -861.000
810.672; 1076.325; -685.000; -690.000
810.926;  719.875; -993.000; -973.000
811.180; 1371.550; -439.000; -372.000
811.434;31266.475;  240.000;  135.000
811.689;13732.325; -231.000; -365.000
811.943;  665.950; -936.000; -953.000
812.197;  339.250; -893.000; -671.000
812.451;  108.425; -379.000; -514.000
812.705;   -5.275; -809.000; -619.000
812.959;   -9.200; -263.000; -388.000
813.213;    8.300; -283.000; -209.000
813.467;   49.175;  470.000;  253.000
813.721;  -95.300; -764.000; -792.000
813.975; -128.075; -826.000; -877.000
814.229;   55.500;  430.000;  353.000
814.482;  -78.475; -517.000; -566.000
814.736; -124.775; -766.000; -744.000
814.990; -134.900; -779.000; -872.000
815.244;  -44.025; -228.000; -285.000
815.497; -109.550; -636.000; -601.000
815.751;  -17.300; -141.000;   82.000
816.005;  -94.900; -470.000; -586.000
816.258;  -66.450; -510.000; -363.000
816.512; -122.650; -693.000; -610.000
816.766;  -12.325;  121.000;  157.000
817.019;   14.725;  148.000;  149.000
817.273; -113.525;-1000.000; -802.000
817.526;  -45.975; -206.000; -173.000
817.779;  -59.200;-1049.000; -960.000
818.033;  -80.825; -693.000; -807.000
818.286; -128.850; -725.000; -792.000
818.540;  -92.425; -403.000; -403.000
818.793;  -83.550; -402.000; -489.000
819.046; -120.225; -582.000; -520.000
819.299;  -30.175; -157.000; -166.000
819.553; -119.950; -552.000; -592.000
819.806; -161.150;-1016.000; -838.000
820.059;  -73.900; -334.000; -354.000
820.312;    4.975;  152.000;  185.000
820.565;  -23.175;  110.000;  -27.000
820.818;  -50.925;  -59.000; -173.000
821.071; -164.100;-1041.000; -957.000
821.324; -120.525; -536.000; -540.000
821.577; -109.400; -457.000; -483.000
821.830;  -54.625; -270.000; -172.000
822.083; -134.075; -733.000; -288.000
822.336;  -53.600; -261.000; -167.000
822.589; -150.550; -805.000; -688.000
822.842; -146.000; -875.000; -770.000
823.094; -182.125;-1076.000;-1114.000
823.347; -136.250; -925.000; -729.000
823.600;   -3.875;  402.000;  187.000
823.853;  -74.100; -311.000; -267.000
824.105;  -77.150; -331.000; -575.000
824.358; -102.800; -617.000; -716.000
824.611;   18.400;  234.000;   40.000
824.863;  -42.825; -612.000; -591.000
825.116;   35.325;  -33.000;   27.000
825.368;   60.200; -366.000; -372.000
825.621;  129.950; -186.000; -240.000
825.873;   71.450; -704.000; -737.000
826.126;  542.000; -669.000; -641.000
826.378;11287.250; -389.000; -505.000
826.630; 3020.550; -890.000; -898.000
826.883;   64.575; -754.000; -693.000
827.135;   32.000; -279.000; -270.000
827.387; -106.550; -893.000; -839.000
827.639;  -24.675;  -86.000;   32.000
827.892; -121.725; -742.000; -582.000
828.144; -157.200; -848.000; -804.000
828.396;  -58.300;  104.000;  -80.000
828.648; -103.650; -440.000; -333.000
828.900; -149.625; -702.000; -795.000
829.152; -128.950; -684.000; -683.000
829.404;  -59.850; -215.000; -267.000
829.656;  -60.975;  321.000;  214.000
829.908;  -25.200;  393.000;  229.000
830.160; -176.725;-1064.000;-1047.000
830.412;  -87.350; -481.000; -430.000
830.664; -139.400; -557.000; -665.000
830.916;  -75.175; -268.000; -206.000
831.167; -183.100;-1073.000; -951.000
831.419; -115.050; -623.000; -566.000
831.671; -152.875; -764.000; -809.000
831.923;  -94.325; -311.000; -447.000
832.174;  -92.475; -273.000; -331.000
832.426; -118.550; -493.000; -582.000
832.678; -205.225;-1043.000;-1091.000
832.929; -159.475; -947.000; -935.000
833.181;  -73.425; -575.000; -677.000
833.432;  -47.550;  -59.000; -186.000
833.684;  -18.425;  112.000;  -27.000
833.935; -110.300; -610.000; -566.000
834.187; -138.250; -829.000; -823.000
834.438;  -50.650;  -58.000;  -25.000
834.689;  -83.075; -255.000; -123.000
834.941;  -51.625; -343.000; -244.000
835.192; -111.275; -590.000; -533.000
835.443; -102.025; -419.000; -506.000
835.695;  -38.850;  138.000;  -16.000
835.946; -100.800; -608.000; -378.000
836.197; -123.025; -599.000; -622.000
836.448;  -86.875; -528.000; -395.000
836.699;  -77.475; -253.000; -341.000
836.950;  -11.125;   72.000;    7.000
837.201; -156.025;-1003.000; -987.000
837.452;  -64.450; -356.000; -170.000
837.703; -126.900; -791.000; -737.000
837.954;  -36.800; -205.000; -365.000
838.205;  -99.575;-1029.000;-1008.000
838.456;  153.775; -196.000; -282.000
838.707;  -21.800; -423.000; -519.000
838.958;    3.300; -634.000; -647.000
839.209;  272.475;   18.000;   40.000
839.460;  125.650; -439.000; -201.000
839.710;  152.825; -135.000; -297.000
839.961;  405.600;  730.000;  612.000
840.212;  327.750; -382.000; -497.000
840.462; 1069.800; -328.000; -277.000
840.713;17335.000; -571.000; -536.000
840.964; 7595.125;  -62.000; -143.000
841.214;  476.800; -384.000; -624.000
841.465;  547.200; -214.000; -141.000
841.715;  475.475; -417.000; -380.000
841.966;  605.700; -746.000; -685.000
842.216; 8106.700; -330.000; -431.000
842.466;33711.925; -169.000; -313.000
842.717; 2047.175; -964.000; -952.000
842.967;  293.900; -635.000; -641.000
843.217;  238.550;   20.000;   28.000
843.468;   72.800; -104.000; -132.000
843.718;  -57.850; -718.000; -726.000
843.968;  -92.800; -837.000; -765.000
844.218;   -7.475; -315.000; -262.000
844.469;  -47.450; -577.000; -561.000
844.719; -120.425; -537.000; -682.000
844.969;  -86.625; -550.000; -580.000
845.219; -149.400; -814.000; -862.000
845.469;  -76.800; -392.000; -342.000
845.719; -142.475; -792.000; -884.000
845.969;  -24.050;  119.000;  174.000
846.219; -129.375; -738.000; -720.000
846.469;   10.900;  464.000;  432.000
846.718;  -58.425; -115.000;   31.000
846.968; -134.975; -827.000; -827.000
847.218;  -64.775; -224.000; -371.000
847.468; -115.325; -586.000; -555.000
847.718; -156.475; -827.000; -798.000
847.967; -144.525; -826.000; -915.000
848.217; -102.850; -449.000; -569.000
848.467;  -73.125; -405.000; -376.000
848.716; -121.050; -708.000; -725.000
848.966;   -0.450; -372.000; -358.000
849.215;  -72.575; -428.000; -419.000
849.465;  -98.625; -785.000; -615.000
849.714; -152.600;-1132.000;-1150.000
849.964;  -63.075; -551.000; -613.000
850.213;  -34.450; -393.000; -355.000
850.463;   62.675;  137.000;  340.000
850.712;  -11.775; -542.000; -567.000
850.961;   22.550; -739.000; -678.000
851.211;   83.525; -513.000; -504.000
851.460;  165.075; -635.000; -650.000
851.709;  543.050;  -25.000;   18.000
851.958; 9773.850; -912.000; -750.000
852.208;13158.250; -859.000; -879.000
852.457;  500.125; -181.000;  -13.000
852.706;   54.900; -791.000; -823.000
852.955;   18.925; -507.000; -528.000
853.204;  -77.875; -521.000; -461.000
853.453;  -93.375; -418.000; -458.000
853.702; -142.950; -660.000; -750.000
853.951; -116.425; -532.000; -520.000
854.200; -125.150; -613.000; -562.000
854.449; -133.475; -695.000; -661.000
854.698; -111.375; -340.000; -279.000
854.946;  -67.100; -181.000; -284.000
855.195; -165.725; -843.000; -868.000
855.444;  -93.675; -395.000; -420.000
855.693; -121.300; -345.000; -432.000
855.941; -105.900; -387.000; -516.000
856.190;  -67.325; -256.000; -382.000
856.439; -140.875; -652.000; -703.000
856.687;  -70.725;  -99.000;  -72.000
856.936; -120.275; -621.000; -323.000
857.184; -185.925;-1067.000;-1020.000
857.433; -104.550; -423.000; -512.000
857.681; -175.700; -989.000; -953.000
857.930;  -71.150; -282.000; -433.000
858.178; -179.375; -856.000; -929.000
858.427; -165.250; -802.000; -781.000
858.675; -131.625; -377.000; -544.000
858.923; -104.650; -527.000; -819.000
859.172; -187.550;-1094.000;-1070.000
859.420;  -91.775; -339.000; -239.000
859.668; -146.900; -624.000; -628.000
859.916;  -43.000;  109.000;  115.000
860.164; -133.375; -699.000; -603.000
860.413;  244.625; -878.000; -696.000
860.661;  202.125; -709.000; -577.000
860.909;  -86.175; -339.000; -325.000
861.157;  -94.825; -277.000; -444.000
861.405; -118.800; -534.000; -670.000
861.653;   -8.125;  310.000;  310.000
861.901;  148.500; -543.000; -613.000
862.149;  -16.850; -801.000; -824.000
862.396;  -82.975; -297.000; -187.000
862.644; -105.525; -368.000; -347.000
862.892;  -45.550;   98.000;  138.000
863.140; -137.250; -549.000; -530.000
863.388; -163.550; -815.000; -759.000
863.635; -141.250; -642.000; -601.000
863.883;  -14.125;  231.000;  190.000
864.131; -124.550; -288.000; -357.000
864.378; -138.150; -675.000; -540.000
864.626; -108.625; -347.000; -415.000
864.873; -124.775; -556.000; -505.000
865.121; -149.875; -714.000; -799.000
865.368;  -39.975; -173.000;   75.000
865.616;  -46.725;  -33.000;  -40.000
865.863;  -64.500; -462.000; -506.000
866.111; -113.550; -795.000; -824.000
866.358;   39.075; -426.000; -420.000
866.605; 2247.075;  -64.000; -804.000
866.853; 2551.350; -621.000; -537.000
867.100;  -48.075; -728.000; -775.000
867.347;  -99.050; -672.000; -611.000
867.594;  -97.625; -740.000; -714.000
867.841;   67.625;   97.000;   17.000
868.089; -155.350; -746.000; -698.000
868.336; -118.575; -477.000; -420.000
868.583; -152.350; -637.000; -741.000
868.830;  -72.650; -131.000; -170.000
869.077; -188.775; -859.000; -787.000
869.324; -125.700; -502.000; -458.000
869.571; -133.725; -398.000; -430.000
869.818; -138.625; -485.000; -439.000
870.065; -121.475; -439.000; -513.000
870.311; -122.400; -456.000; -542.000
870.558; -115.950; -332.000; -311.000
870.805;  -88.375; -320.000; -384.000
871.052; -128.675; -494.000; -369.000
871.298;  -63.750; -204.000; -131.000
871.545;  -80.350; -151.000; -185.000
871.792;  -88.625; -173.000; -222.000
872.038;  -86.350;   43.000; -126.000
872.285; -121.975; -496.000; -387.000
872.532; -120.225; -357.000; -387.000
872.778;   11.200;  556.000;  403.000
873.025; -116.300; -384.000; -359.000
873.271;    6.875;  501.000;  578.000
873.517;  -39.475; -133.000; -209.000
873.764;  -55.775; -193.000;  -80.000
874.010;  -85.150; -143.000; -230.000
874.257;  -55.975;  123.000;   90.000
874.503; -153.025; -579.000; -479.000
874.749;  -66.725;   31.000;  275.000
874.995;  -76.350;  -80.000;  -20.000
875.242; -126.725; -540.000; -478.000
875.488; -114.250; -414.000; -439.000
875.734;  -68.250; -106.000; -234.000
875.980;  140.700; -872.000;-1032.000
876.226;  357.625; -157.000; -255.000
876.472;  -19.800;  343.000;  237.000
876.718;  -50.375;  184.000;  158.000
876.964;  -73.750;   56.000;   55.000
877.210; -151.325; -547.000; -677.000
877.456; -142.575; -630.000; -557.000
877.702; -179.950; -821.000; -832.000
877.948; -120.325; -377.000; -497.000
878.193;   10.675;  361.000;  255.000
878.439; -116.100; -487.000; -472.000
878.685;  -90.325; -272.000; -343.000
878.931; -145.250; -618.000; -676.000
879.176;  -88.300; -201.000; -201.000
879.422; -181.950; -933.000; -820.000
879.668;   40.675;   10.000;   79.000
879.913;  135.325;   53.000;  137.000
880.159;  -53.500; -112.000;  -17.000
880.404;  -68.650; -152.000; -162.000
880.650;  -54.175;   91.000;  141.000
880.895; -165.550; -670.000; -710.000
881.141; -133.075; -454.000; -428.000
881.386; -162.900; -503.000; -658.000
881.631;  -88.300; -311.000; -166.000
881.877;  -49.525;  112.000;  -13.000
882.122; -146.350; -684.000; -600.000
882.367;  -86.200; -136.000; -186.000
882.612;  -76.950;  -80.000; -176.000
882.858; -187.775; -877.000; -823.000
883.103; -110.425; -297.000; -267.000
883.348; -160.575; -759.000; -852.000
883.593; -139.425; -677.000; -602.000
883.838;  -69.025; -311.000;  -24.000
884.083;   17.575;  353.000;  288.000
884.328; -101.550; -564.000; -545.000
884.573;  -65.825; -196.000; -143.000
884.818;  149.950; -694.000; -531.000
885.063;  188.600; -348.000; -315.000
885.308; -117.350; -475.000; -398.000
885.553;  -14.225;  245.000;  325.000
885.797; -147.100; -545.000; -615.000
886.042;  -64.175;    8.000;   58.000
886.287; -102.275; -253.000; -211.000
886.532;  -52.300;   26.000;  204.000
886.776;  -99.150; -407.000; -525.000
887.021; -145.225; -621.000; -574.000
887.265; -155.825; -685.000; -689.000
887.510; -141.975; -557.000; -496.000
887.755;  -99.475; -194.000; -164.000
887.999; -150.100; -552.000; -575.000
888.244;  -66.000;  -58.000;  161.000
888.488;  -22.100;  371.000;  393.000
888.732; -137.650; -368.000; -520.000
888.977; -130.425; -622.000; -567.000
889.221; -164.725; -683.000; -659.000
889.465; -132.375; -422.000; -566.000
889.710; -107.250;  -56.000; -299.000
889.954;  -19.075;  579.000;  467.000
890.198; -167.250; -584.000; -707.000
890.442; -154.575; -716.000; -712.000
890.687; -175.350; -800.000; -753.000
890.931; -102.450; -273.000; -210.000
891.175; -141.325; -502.000; -500.000
891.419;  -88.700; -105.000; -110.000
891.663;  -89.575; -239.000; -112.000
891.907; -160.875; -801.000; -545.000
892.151; -184.650; -920.000; -815.000
892.395; -120.825; -274.000; -387.000
892.638;  -30.750;  408.000;  291.000
892.882; -182.500; -780.000; -867.000
893.126;    3.625;  758.000;  558.000
893.370; -101.450; -167.000; -168.000
893.614; -148.500; -714.000; -715.000
893.857; -112.050; -183.000; -197.000
894.101; -143.075; -527.000; -631.000
894.345;  -45.250;  300.000;  150.000
894.588;    4.300;  569.000;  380.000
894.832;  -78.250; -178.000;  -84.000
895.075;  -96.400;   15.000;  -92.000
895.319; -131.325; -552.000; -420.000
895.563; -140.200; -413.000; -353.000
895.806; -164.500; -628.000; -741.000
896.049;  -81.600; -576.000; -368.000
896.293;   87.675;  527.000;  405.000
896.536;  -87.225; -465.000; -468.000
896.779;  -60.025; -149.000;   -1.000
897.023; -143.750; -751.000; -714.000
897.266;  -33.175;  325.000;  269.000
897.509; -199.275; -900.000; -901.000
897.752;  -37.125;  149.000;  171.000
897.996; -191.500; -972.000; -864.000
898.239;  -46.175;  168.000;  102.000
898.482; -136.825; -431.000; -453.000
898.725;  -49.825;  101.000;   53.000
898.968; -160.775; -609.000; -744.000
899.211; -114.400; -513.000; -361.000
899.454; -138.750; -633.000; -539.000
899.697;  -69.325;   90.000;  -43.000
899.940; -175.825; -761.000; -757.000
900.182; -100.500; -335.000; -405.000
900.425;  -96.325; -150.000; -298.000
900.668;  -23.500;  491.000;  350.000
900.911; -113.375; -292.000; -345.000
901.154;  -55.575;  141.000;   -3.000
901.396; -144.250; -407.000; -412.000
901.639; -140.450; -430.000; -496.000
901.882; -196.050; -790.000; -809.000
902.124;  -82.000;  -29.000; -143.000
902.367; -123.450; -315.000; -361.000
902.609; -131.975; -476.000; -453.000
902.852;  -97.675; -108.000; -260.000
903.094; -132.850; -458.000; -337.000
903.337;  -75.950;  -26.000;   53.000
903.579; -110.225; -228.000; -441.000
903.821; -151.525; -597.000; -744.000
904.064;  -59.400;   85.000;  127.000
904.306;  -90.625; -126.000; -166.000
904.548;  -96.150; -152.000; -366.000
904.790; -116.450; -195.000; -340.000
905.033; -122.975; -625.000; -577.000
905.275; -134.600; -513.000; -524.000
905.517;   23.025;  468.000;  256.000
905.759;  -93.925; -667.000; -761.000
906.001; -109.350; -322.000; -369.000
906.243;  -75.550; -162.000; -224.000
906.485;   98.775; -265.000; -207.000
906.727;   79.775; -499.000; -542.000
906.969;  -34.500;  -30.000; -135.000
907.211;   87.550; -316.000; -382.000
907.453;  242.225; -188.000; -237.000
907.695;  -17.375; -158.000; -385.000
907.936;   35.000;  818.000;  706.000
908.178;  -75.950;   92.000; -135.000
908.420;  -82.175; -111.000; -162.000
908.662; -155.350; -633.000; -682.000
908.903;  -81.725; -208.000; -123.000
909.145;  -84.400; -240.000; -305.000
909.386;   -7.225;  315.000;  280.000
909.628;   34.525;  363.000;  397.000
909.870;   -2.850;   29.000;  264.000
910.111; -109.525; -809.000; -949.000
910.353;    6.425; -123.000; -161.000
910.594;  -10.225; -574.000; -606.000
910.835;   65.900; -265.000; -326.000
911.077;  157.325; -503.000; -604.000
911.318;  296.725; -505.000; -471.000
911.559;  442.350; -577.000; -880.000
911.801; 1283.425; -284.000; -280.000
912.042; 9846.700;  -50.000; -159.000
912.283;27232.725;  404.000;  371.000
912.524; 4518.150; -396.000; -457.000
912.765;  498.525; -193.000;   79.000
913.006;  220.350; -307.000; -338.000
913.247;   55.725; -270.000; -290.000
913.488;  -33.500;  -43.000;   30.000
913.729;  -93.425; -373.000; -373.000
913.970;  -73.675;  -96.000; -292.000
914.211;  -73.800; -160.000; -198.000
914.452;  -71.700; -118.000;  -11.000
914.693;    4.900;  510.000;  592.000
914.934;   -7.075;  510.000;  440.000
915.175;  -64.375;   53.000;  -95.000
915.415;  -83.325; -137.000;   27.000
915.656;  -70.375;  -28.000;  192.000
915.897; -109.500; -252.000;  -82.000
916.137;  -83.150;   74.000;   -9.000
916.378; -141.975; -573.000; -517.000
916.619;  -92.025; -159.000;  -63.000
916.859;  -37.675;  303.000;  330.000
917.100;  136.125; 1655.000; 1070.000
917.340;   36.500;  930.000;  728.000
917.581;   42.950;  965.000;  789.000
917.821;  -41.450; -171.000;  143.000
918.061;   -3.600; -199.000;  -72.000
918.302;  -72.450; -152.000; -211.000
918.542;  -35.350;  -22.000;    3.000
918.782;   13.650;  369.000;  377.000
919.023;  118.000;  360.000;  427.000
919.263; 1685.025; 8131.000;  202.000
919.503; 1104.575; -137.000;  -54.000
919.743;  582.700;  390.000;  266.000
919.983;  263.800; -134.000;  -26.000
920.223;   75.000;  135.000;   14.000
920.463;  142.600;  631.000;  554.000
920.703;  119.000;   84.000;   39.000
920.943;  174.225; -110.000;   90.000
921.183;  222.100; -414.000; -405.000
921.423;  514.550;  307.000;  546.000
921.663;  718.575; -174.000; -257.000
921.903; 1565.150;  237.000;  173.000
922.143; 8441.450;  372.000;  389.000
922.383;33621.925;  158.000;  115.000
922.622;12369.150; -120.000;  -15.000
922.862; 1285.700;  796.000;  785.000
923.102;  472.650;  -51.000;   33.000
923.341;  200.675;   59.000;   74.000
923.581;   70.475;  450.000;  360.000
923.821;   13.575;  301.000;  398.000
924.060;   -2.275;  351.000;  193.000
924.300;  -53.875;  -16.000; -128.000
924.539;   -5.750;  584.000;  473.000
924.779;   12.000;  812.000;  597.000
925.018;  -47.525;  247.000;  353.000
925.257;  -13.100;  595.000;  666.000
925.497;  -54.850;  447.000;  412.000
925.736;  -82.775;  -35.000;  102.000
925.975;  -18.075;  687.000;  669.000
926.214;   13.600;  907.000;  850.000
926.454;   12.175;  706.000;  757.000
926.693;  -34.225;  419.000;  543.000
926.932;   19.075; 1021.000;  825.000
927.171;   81.425; 1107.000; 1044.000
927.410;   37.775; 1144.000;  967.000
927.649;   23.025;  924.000;  742.000
927.888;  -23.325;  590.000;  564.000
928.127;    6.775;  680.000;  678.000
928.366;   16.400;  842.000;  826.000
928.605;   33.600;  831.000;  737.000
928.844;  209.400; 1451.000; 1393.000
929.083;  581.700;  770.000;  613.000
929.321;  331.275; 1335.000; 1359.000
929.560;   87.375; 1158.000; 1122.000
929.799;  -39.300;  574.000;  475.000
930.038;   81.300; 1025.000; 1394.000
930.276;  -53.925;  334.000;  397.000
930.515;    2.675;  827.000;  681.000
930.753;  -32.825;  614.000;  589.000
930.992;  -24.725;  664.000;  717.000
931.230;   -6.600;  847.000;  847.000
931.469;  165.775; 2162.000;  892.000
931.707;   60.525;  840.000;  751.000
931.946;   71.375; 1278.000; 1344.000
932.184;   37.650; 1437.000; 1175.000
932.423;   57.225; 1265.000;  963.000
932.661;   58.525; 1296.000; 1428.000
932.899;   20.475;  987.000;  821.000
933.137;    5.725;  754.000;  564.000
933.376;  140.175; 1664.000; 1335.000
933.614;  160.800; 1759.000; 1196.000
933.852;   55.250; 1357.000; 1171.000
934.090;  130.350; 1722.000; 1747.000
934.328;  109.675; 1252.000; 1457.000
934.566;   86.450; 1431.000; 1110.000
934.804;  125.300; 1263.000; 1309.000
935.042;  445.475; 1861.000; 1850.000
935.280; 1809.450; 2088.000; 2063.000
935.518; 1820.775; 2113.000; 2007.000
935.756;  390.050; 2481.000; 2316.000
935.994;  127.200; 1808.000; 1751.000
936.231;  339.775; 2890.000; 2950.000
936.469;  174.600; 2367.000; 2378.000
936.707;  173.525; 2220.000; 2167.000
936.945;  235.825; 2825.000; 2882.000
937.182;  198.350; 2679.000; 2741.000
937.420;  282.200; 3602.000; 3031.000
937.657;  390.275; 3365.000; 3478.000
937.895;  348.275; 3331.000; 3488.000
938.133;  285.850; 3540.000; 3528.000
938.370;  323.725; 3896.000; 4191.000
938.607;  380.425; 4488.000; 4205.000
938.845;  529.500; 5587.000; 5549.000
939.082;  482.950; 5387.000; 5177.000
939.320;  534.650; 5799.000; 5728.000
939.557;  629.800; 6549.000; 6491.000
939.794;  713.625; 7285.000; 7097.000
940.031;  913.625; 8421.000; 8368.000
940.269; 1085.475; 9552.000; 9107.000
940.506; 1094.375;10901.000;10507.000

