
Integration time [ms]: 100.000
Averaging Nr. [scans]: 40
Smoothing Nr. [pixels]: 0
Data measured with spectrometer [name]: 2101013U2
Wave   ;Sample   ;Dark     ;Reference
[nm]   ;[counts] ;[counts] ;[counts] 

394.013;   43.518; -450.257; -315.536
394.305;  178.241; -461.258; -419.536
394.596; 1070.713; -676.269; -527.514
394.887; 2762.555; -796.268; -654.518
395.178; 1071.460;  145.736;   11.476
395.470;   76.122; -210.263; -356.526
395.761;  183.670;  305.734;  394.479
396.052;  239.863; -545.284; -306.489
396.343;  236.008; -557.276; -454.503
396.634;   89.502; -200.279; -290.497
396.926;   83.552; -618.268; -565.517
397.217;  105.562;   11.725;  -17.504
397.508;   43.353; -366.273; -154.507
397.799;   34.177; -555.279; -571.497
398.090;   -7.004; -973.280; -902.495
398.381;  128.663;   11.708;  -11.473
398.672;  -13.611; -585.292; -742.473
398.963;   30.508; -348.279; -373.498
399.254;   97.498;   54.709; -209.475
399.545;  -31.009;-1017.266; -883.520
399.836;   57.522; -407.277; -343.501
400.127;   53.264; -205.295; -209.468
400.418;   38.273; -423.274; -392.506
400.709;   60.083; -359.281; -333.493
401.000;   42.677; -268.291; -309.476
401.290;  113.051;  225.698;  115.545
401.581;   59.096; -166.286; -228.485
401.872;   11.561; -542.298; -486.462
402.163;   32.532; -313.296; -252.467
402.454;   84.499; -123.291; -163.475
402.744;   65.323; -844.297; -813.465
403.035;  423.654; -226.293;  -86.471
403.326;  540.217; -366.292; -384.474
403.617;  358.905;  204.701;  165.539
403.907;  248.494; -593.283; -679.490
404.198; 2457.555; -545.307; -599.446
404.489; 6335.374; -618.283; -588.491
404.779; 2144.304; -618.302; -660.456
405.070;  234.783;  -67.304; -174.451
405.360;  341.056; -259.293; -238.472
405.651;  360.865;  125.699;   98.542
405.942;  167.091;  209.714;  127.516
406.232;  239.780; -432.285; -413.487
406.523;  460.899;  641.706;  758.530
406.813;   75.268; -579.286; -644.484
407.104;  322.862;  261.708;  144.527
407.394;  164.632; -604.299; -591.462
407.685;  160.855;  336.715;  222.513
407.975;   49.447; -400.283; -382.490
408.265;  110.938; -134.289; -190.478
408.556;   60.496; -472.291; -459.475
408.846;  166.500;  474.706;  429.530
409.137;   78.897;   -1.288; -216.480
409.427;   49.380; -193.285; -271.487
409.717;   17.006; -776.273; -692.508
410.007;  137.524;    4.715; -170.486
410.298;   97.892; -360.295; -342.469
410.588;   66.253; -495.285; -510.486
410.878;   22.583; -792.287; -873.482
411.168;  104.189; -481.298; -478.463
411.459;  106.742; -295.283; -242.489
411.749;   57.394; -609.292; -507.474
412.039;   50.695; -755.289; -386.480
412.329;  204.390;   40.722;  132.501
412.619;  189.118;  -62.286; -148.485
412.909;  376.016;  639.711;  594.521
413.199;  323.096; -130.280; -251.495
413.490;  396.581;  521.710;  352.523
413.780;  134.800;-1013.279; -913.496
414.070;  323.984;  -46.276;  235.497
414.360;  346.586; -729.278; -666.498
414.650;  410.929; -726.288; -688.482
414.940;  541.074; -538.280; -441.496
415.230;  917.351;   50.712;   74.519
415.520; 6184.112;  155.730;   66.486
415.809;24227.533; -305.281; -125.493
416.099;18987.774; -388.277; -229.501
416.389; 5328.520;  435.726;  236.494
416.679; 3123.475;   91.738;   85.473
416.969;  528.112; -527.287; -503.483
417.259;  605.752;  341.721;  171.503
417.549;  696.031;  522.718;  318.508
417.838; 1705.054; -205.268; -147.518
418.128; 5637.737;  650.710;  492.522
418.418; 4710.963; -491.272; -579.509
418.708; 3158.621;    9.726;  -48.506
418.997;11855.091; -474.275; -480.505
419.287;12457.102; -733.273; -790.507
419.577;11808.816; -160.283; -123.489
419.866;38953.147; -588.277; -498.501
420.156;39882.558; -242.270;  -55.513
420.446; 7199.768; -112.263;  -26.526
420.735;  865.652; -376.271; -446.512
421.025;  819.385; 1830.722;  315.502
421.314;  652.475; -203.271; -226.512
421.604; 1334.122;   89.732;  233.484
421.893;  779.522; -705.271; -602.511
422.183;  214.743; -487.263; -461.526
422.472;  379.623;  -36.271; -107.511
422.762;  446.147; -416.266; -379.521
423.051;  254.334; -916.276; -916.503
423.341;  315.954; -491.273; -439.507
423.630;  414.878; -121.265;   15.477
423.919;  367.041;   58.725;   49.495
424.209;  388.998;  -31.263;   56.473
424.498;  501.002;   68.732;  161.483
424.787; 1084.133; -535.267; -601.518
425.077; 3400.777;   34.735;   29.478
425.366; 4747.854; -734.262; -744.528
425.655;10165.030;  639.727;  259.493
425.945;22462.183; -313.247; -268.554
426.234;12588.827;  117.741;  300.467
426.523; 5101.232;  -86.259; -350.534
426.812; 7083.118;  107.734;  159.480
427.101;10491.168; -127.269; -323.515
427.390;13197.462;  -55.270;  -86.514
427.680; 2918.402; -624.257; -411.538
427.969;  478.737; -330.255; -301.540
428.258;  305.143; -385.257; -477.536
428.547;  536.242;  449.728;  397.490
428.836; 1199.429; -421.253; -398.543
429.125; 1724.084; -199.259;  -72.534
429.414;  793.326; -330.251; -294.548
429.703; 3188.576; -231.251; -213.548
429.992; 9497.505; -938.250; -828.549
430.281; 6257.911; -397.264; -331.524
430.570;  572.317;  -21.252;   32.454
430.859;  532.456;  279.741;  352.466
431.148;  422.329;  636.752;  631.446
431.437;  294.916;  391.748;  367.454
431.725;  151.020; -544.257; -481.536
432.014;  126.161; -845.253; -756.545
432.303;  364.530; -149.239; -105.569
432.592;  584.267; -460.263; -178.525
432.881; 1056.430; -601.248; -437.554
433.169; 6357.138; -343.255;  -61.540
433.458;12935.488;  445.765;  540.424
433.747; 5427.510; -397.261; -289.529
434.036;  864.505; -275.242; -280.564
434.324; 2119.042; -395.249; -379.551
434.613; 3669.624;   40.757;  159.437
434.902; 1226.895;  333.760;  439.433
435.190;  515.503;   75.761;  295.431
435.479;  294.481;  -52.245;   83.441
435.767;   97.789; -411.244; -427.561
436.056;  203.976; -340.242; -294.563
436.345;  366.122; -372.240; -223.568
436.633;  382.688;   60.750;  383.450
436.922;  239.324;  208.760;  414.432
437.210;  537.178; -194.236;    1.426
437.499; 1694.736; -583.235; -432.576
437.787; 1895.153; -339.236;  -10.574
438.075;  489.384;   56.761;  162.430
438.364;  647.512;  -44.238;  250.429
438.652;  387.491; -286.226; -138.592
438.941;  132.905;    3.770;  269.415
439.229;   -4.161; -665.252; -466.545
439.517;   26.720; -160.234;  -85.577
439.806;  -11.918; -501.225; -290.595
440.094;  174.978;  377.766;  650.421
440.382;  164.831; -653.233; -302.580
440.670;  189.236; -361.235; -285.576
440.959;   13.124; -347.223; -170.599
441.247;   66.192; -151.229; -109.587
441.535;   93.843; -266.235;   31.423
441.823;   26.600; -497.234; -305.578
442.111;  174.696;  173.771;  327.412
442.400;  473.130; -628.245; -335.559
442.688; 1285.227; -111.234; -620.579
442.976;  914.312; -786.213; -450.617
443.264;   90.039; -324.224; -364.597
443.552;   87.367; -258.226;   51.408
443.840;  170.042;  602.765;  876.423
444.128;   97.980;  265.767;  269.420
444.416;   -8.951; -694.228; -312.588
444.704;   23.554; -465.219;  -92.605
444.992;   50.895;   -0.226;  240.407
445.280;   29.906; -517.230;  -94.585
445.568;   27.016; -694.212; -396.618
445.856;  310.588; -174.221;  357.398
446.143;  682.825;  -54.220;   -7.604
446.431;  587.152;  -25.228;  625.411
446.719;  224.223;  489.783;  675.391
447.007;  180.350;  481.769;  705.416
447.295;  180.071;  597.777;  871.402
447.583;   81.739; -464.229;  -34.587
447.870;  138.185; -434.221; -202.601
448.158;  384.330; -104.230;  129.415
448.446;  302.151; -800.219; -338.604
448.733;  168.190;   13.776;  269.403
449.021;  238.290;   60.788;  341.382
449.309;  183.355; -296.210;  208.379
449.596;  209.344;  128.783;   59.392
449.884;  143.253; -571.222; -325.600
450.172;  162.658; -756.227; -406.590
450.459;  450.370;  645.786;  780.387
450.747; 2451.818; -411.218; -147.608
451.034; 7832.603;  493.772;  889.411
451.322; 6540.848; -413.214; -170.614
451.609;  552.592;  292.777;  508.403
451.897;  607.793; -550.203; -183.634
452.184; 1817.572; -622.223; -400.598
452.472; 1746.877;   97.792;  269.375
452.759;  337.477;  512.781;  864.395
453.047;   99.563; -407.212; -125.617
453.334;   71.285; -732.219; -216.606
453.621;   69.226; -438.214; -161.615
453.909;  103.960;   13.796;  384.368
454.196;   96.530; -299.199; -123.641
454.483;  184.981;  317.798;  540.364
454.771;  109.080; -215.208;  196.374
455.058;   24.883; -316.207;  102.374
455.345;  110.586;   71.807;  344.347
455.632;   91.486; -128.207;  235.373
455.919;   38.553;  -82.196;  182.354
456.207;  -55.865; -774.198; -450.642
456.494;  -11.982; -475.200;  -66.639
456.781;    5.352; -399.202; -198.635
457.068;   34.243; -253.206;  -29.628
457.355;  -22.481; -698.206; -401.629
457.642;  -10.201; -552.205; -290.630
457.929;    4.152; -778.194; -417.651
458.216;   61.788; -575.212; -354.617
458.503;  255.831; -173.193;  -19.652
458.790;  230.702; -864.208; -630.625
459.077;  270.232;  -77.202;  110.364
459.364;  812.470; -350.195; -210.649
459.651; 1734.166;  -46.206;  220.372
459.938;  790.393; -864.209; -665.623
460.225;  132.435;  132.799;  276.363
460.512;  -42.725; -836.197; -688.645
460.799;   87.167;  -32.218;  320.392
461.086;   60.873; -370.200; -251.640
461.372;   25.010; -509.198; -279.642
461.659;  102.279; -165.196;  108.354
461.946;   63.730; -445.193;  -54.651
462.233;  243.695;  842.800;  888.361
462.519;  362.317; -814.201; -464.639
462.806; 1026.326; -768.197; -497.645
463.093;  902.201; -445.191;  -66.656
463.380;  -26.083; -920.186; -824.664
463.666;   53.752; -259.197;  -18.646
463.953;   94.290; -406.195; -243.648
464.239;  186.064; -173.195;  -77.648
464.526;  388.950;  413.806;  743.350
464.813;  334.237; -565.190; -304.658
465.099;  349.556;  606.807;  607.348
465.386;  316.885;  903.807;  921.348
465.672;    3.901; -694.197; -522.645
465.959;   10.630; -598.188; -520.662
466.245;   -0.540; -468.193; -359.652
466.532;   92.637; -109.195;   63.352
466.818;   45.867; -357.186; -216.664
467.104;    0.182; -488.182; -415.672
467.391;  -27.261; -628.189; -459.658
467.677;   31.495; -289.186;    9.335
467.964;   -7.054; -682.189; -471.660
468.250;   54.548; -331.186; -160.665
468.536;   69.715;   90.811;  180.341
468.822;  -36.615; -821.184; -574.668
469.109;  133.137;  351.827;  471.311
469.395;  194.370;  729.808;  787.346
469.681;  204.193;   46.811;  156.341
469.967; 1275.498; -699.188; -382.660
470.254; 2758.306; -494.188; -306.662
470.540; 1773.428; -601.196; -476.646
470.826;  244.368; -488.181; -397.675
471.112;  288.913;  288.816;  113.331
471.398;   84.643; -253.183;  -58.670
471.684;   39.896; -626.177; -447.680
471.970;  -14.578; -918.180; -981.675
472.256;   19.969; -521.192; -441.654
472.542;   17.198; -499.171; -434.691
472.828;    4.803; -743.182; -607.672
473.114;   14.042; -380.166; -283.700
473.400;   -4.837; -504.175; -293.684
473.686;   20.523; -452.166; -400.701
473.972;   45.027; -230.174; -131.687
474.258;  -44.113; -925.173; -843.689
474.544;  212.438; -183.178;   -2.679
474.830;  326.589;  -65.175;   45.316
475.116;  500.214; -123.190; -196.658
475.401;  679.374; -558.180; -467.676
475.687;  216.373; -725.180; -718.676
475.973;  -14.864; -673.181; -770.673
476.259;  246.941;  736.825;  764.315
476.544;  360.579; -539.176; -437.682
476.830;  864.519; -398.172; -322.690
477.116;  775.278; -430.177; -336.682
477.401;  144.673;  346.820;  358.324
477.687;  -34.962; -289.175; -405.684
477.973;   49.589;   21.819;   28.326
478.258;  -21.982; -448.163; -348.706
478.544;   56.103;   21.815;   61.334
478.829;  -64.721; -818.171; -738.692
479.115;  -53.581; -749.172; -651.690
479.401;   -1.902; -444.174; -449.686
479.686;   37.747; -253.180;  -74.676
479.972;  -31.657; -886.178; -776.680
480.257;   22.868; -258.166;  -65.700
480.542;  -11.267; -614.170; -469.693
480.828;  225.161; 1288.824; 1392.317
481.113;  -49.891; -464.176; -426.683
481.399;   -8.058; -236.161; -202.711
481.684;  -48.882; -620.166; -462.700
481.969;   11.606; -158.159;  -73.713
482.255;   -2.957; -439.169; -285.695
482.540;  -12.157; -569.178; -441.680
482.825;    1.162; -395.187; -404.663
483.110;   86.397;  -85.169; -105.696
483.396;  197.902; -840.157; -652.718
483.681;  493.077;  543.826;  730.313
483.966;  164.525; -696.160; -700.712
484.251;  -10.249; -404.174; -310.687
484.536;   -4.372; -356.165; -378.703
484.822;    7.654; -205.173; -218.687
485.107;  -43.960; -599.152; -502.726
485.392;  114.809;  662.836;  541.296
485.677;   68.556;  354.832;  163.302
485.962;   98.500;  160.843;  270.283
486.247;   97.676;  -14.162;   -8.707
486.532;   40.019; -178.166; -325.701
486.817;  157.862;  381.839;  431.291
487.102;  124.173; -453.154; -514.722
487.387;  701.229; -637.156; -652.718
487.672; 1220.464; -154.164;  -38.705
487.957;  769.944; -394.160; -286.711
488.241;  217.907; -290.150; -314.729
488.526;  770.417; -280.152; -148.726
488.811; 1222.345; -881.177; -818.680
489.096;  927.776; -666.154; -702.723
489.381;  497.288;    3.847;  162.275
489.666;  369.092; -428.161; -510.710
489.950;  171.079;  558.846;  627.277
490.235;  -27.348; -480.151; -458.728
490.520;  -49.584; -756.161; -723.710
490.804;  -60.669; -827.156; -736.719
491.089;   -9.277; -469.149; -299.732
491.374;   36.388; -132.164;  -75.704
491.658;  -17.241; -817.147; -717.735
491.943;  164.446; -657.152; -609.727
492.227;  237.719; -178.155;  -38.721
492.512;   45.749; -294.157; -341.717
492.797;  -79.683; -713.149; -716.731
493.081;  -58.863; -588.147; -598.735
493.366;  -51.257; -751.161; -635.711
493.650;  201.765;  831.859;  917.254
493.935;   21.959; -648.147; -447.734
494.219;  -38.048; -778.142; -687.743
494.503;  -57.813; -585.150; -487.730
494.788;   48.091;   46.842;   74.285
495.072;  106.708;  184.850;  434.271
495.356;  169.026; -463.148; -343.733
495.641;  465.918; -812.146; -736.736
495.925;  438.311; -976.156; -903.719
496.209;   43.322; -599.149; -451.732
496.494;  -50.772; -763.142; -544.744
496.778;    1.848; -364.154; -360.722
497.062;  -72.764; -819.156; -627.719
497.346;  -30.729; -869.160; -640.711
497.631;  131.529;  580.852;  560.266
497.915;   64.654;  -64.145;  175.261
498.199;   37.952; -341.157; -277.718
498.483;   25.590; -562.152; -508.725
498.767;  196.034;  301.850;  300.271
499.051;  183.170; -126.149; -100.732
499.335;   13.918; -693.149; -739.731
499.619;  -43.934; -381.129; -423.767
499.903;   23.493; -272.155;  -65.721
500.187;   17.356; -588.153; -316.724
500.471;   19.295; -796.152; -595.727
500.755;   93.216;   62.839;  -96.710
501.039;   15.993; -270.155; -357.721
501.323;   82.417;  -21.141;  264.254
501.607;   22.969; -447.163; -503.706
501.891;   -6.471; -607.156; -512.718
502.174;  -38.285; -726.144; -585.741
502.458;   61.199;   89.849;  370.273
502.742;   50.191; -180.138; -191.751
503.026;  109.808; -412.147; -254.734
503.310;  167.705; -437.159; -375.713
503.593;  116.235; -464.147; -325.735
503.877;  124.381; -232.133; -156.760
504.161;  180.908;    2.847;  -50.724
504.444;  144.043; -841.158; -710.716
504.728;  458.637; -487.164; -522.704
505.012;  733.681; -257.150;  -76.729
505.295;  581.767; -417.161; -212.711
505.579;  537.110; -256.156; -496.719
505.862;  775.000; -555.145; -333.738
506.146;  768.257; -681.159; -758.714
506.429;  422.807;  568.841;  461.286
506.713;   59.178; -732.151; -667.728
506.996;  344.798;   90.846;  295.278
507.280;  348.782; -633.165; -474.703
507.563;  251.541; -469.155; -261.721
507.847;   95.906; -423.153; -112.724
508.130;   98.918; -665.161; -456.711
508.413;  109.689; -758.167; -577.700
508.697;  267.989; -151.167;   12.300
508.980;  154.583; -422.153; -312.724
509.263;   -7.562; -466.155; -450.720
509.547;   30.231; -124.150;   82.271
509.830;   41.995; -172.160;  140.289
510.113;   85.510;  128.844;  298.281
510.396;   43.938; -530.152; -300.725
510.680;  147.952; -818.145; -812.738
510.963;  575.252;  184.846;  180.277
511.246;  487.164; -493.150; -357.730
511.529;  261.157; -482.145;  -83.739
511.812;  388.002; -250.134;   10.241
512.095;  277.176; -740.151; -396.728
512.378;   68.614; -317.147; -245.736
512.661;   17.698; -703.137; -623.753
512.944;   21.654; -750.142; -637.744
513.227;   68.820; -170.137; -171.752
513.510;   29.590; -479.144; -671.741
513.793;    3.246; -485.140; -435.747
514.076;  130.412;  -43.127;  -39.771
514.359;   99.023; -294.149; -135.732
514.642;   83.832; -442.142; -567.744
514.925;  780.594;  581.860;  561.253
515.208; 1035.649; -498.134; -443.758
515.491;  718.163; -276.133; -182.761
515.773;  389.669; -410.143; -337.742
516.056; 2190.505;  249.864;  409.246
516.339; 2938.958; -754.136; -652.755
516.622; 1924.036; -518.150; -488.730
516.904; 1190.251;  882.857;  975.257
517.187;  526.944; -730.138; -523.752
517.470;  399.425; -568.143; -510.743
517.752;  475.186; -624.136; -470.756
518.035;  359.832; -708.139; -725.749
518.318;  391.509; -799.136; -744.755
518.600; 2547.941; -300.132; -325.762
518.883; 3480.557;  310.858;   88.256
519.165; 1708.812; -585.138; -426.751
519.448;  412.341;  -61.132;  -19.762
519.730;  188.769; -573.126; -415.773
520.013;  312.934;  588.867;  664.240
520.295;  791.954;  -94.134;  -15.759
520.578; 1771.854; -335.131; -305.764
520.860; 1976.316; -254.132;   56.238
521.143; 1044.788; -763.135; -584.756
521.425;  476.632; -251.125; -279.775
521.707;  698.062; -622.127; -380.771
521.990; 1845.263; -199.127;  167.229
522.272; 2113.973; -116.140;   -4.748
522.554;  932.295; -237.143; -157.742
522.836;  367.777;  -24.134;   99.241
523.119;  227.932; -496.148; -189.734
523.401;  134.186; -448.130; -314.766
523.683;   81.699; -865.137; -693.753
523.965;  280.242;  408.862;  260.248
524.247;  272.503;   54.878;  170.220
524.529;  204.179; -451.134; -367.759
524.812;  362.512;   -3.130;  191.234
525.094;  892.216; -773.138; -631.751
525.376; 1399.416; -143.124;   78.223
525.658;  883.231; -441.136; -339.754
525.940;   29.650; -805.131; -671.764
526.222;   45.359; -188.136;  -88.755
526.504;  109.498; -190.131;   32.237
526.786;  168.231; -960.133; -647.760
527.068;  289.772; -124.123;  -67.778
527.349;  104.677; -865.137; -774.754
527.631;  125.941; -137.132;   22.238
527.913;  141.911; -664.127; -450.771
528.195;  159.925; -761.125; -639.774
528.477;  260.724;  -93.134;  -30.758
528.759;  135.362; -648.130; -522.766
529.040;   64.770; -569.123; -293.778
529.322;   53.853; -235.125;  -10.774
529.604;  139.565;  -47.130;   93.233
529.886;  126.019; -546.126; -302.773
530.167;  114.856;  232.870;  192.235
530.449;   37.238;    1.853;   63.265
530.731;   17.152; -572.122; -459.779
531.012;   74.973; -513.120; -216.784
531.294;   82.012; -118.116;  -43.792
531.575;  142.482;  290.875;  538.225
531.857;   45.969; -548.135; -266.757
532.138;   95.565; -113.141;   40.254
532.420;  174.190;  294.865;  403.244
532.701;  203.334; -722.133; -751.760
532.983;  334.812;  232.867;  182.239
533.264;  120.567; -243.126;  175.228
533.546;  -33.391; -491.136; -508.755
533.827;   42.555;  173.867;   -1.759
534.109;   38.769; -352.135;  -80.757
534.390;   76.470; -725.132; -582.762
534.671;  238.040; -270.135;  -82.756
534.953;  144.873; -751.123; -611.779
535.234;   24.972; -426.117; -255.789
535.515;  -93.119; -891.119; -735.785
535.796;  -27.043; -431.128; -193.770
536.078; -112.984;-1050.124; -904.777
536.359;    2.899;  -22.123;    3.221
536.640;  -19.748; -480.125; -197.774
536.921;  178.145;  225.871;  143.232
537.202;  376.538;  -87.138;  -16.751
537.483;  486.428;  251.869;  377.236
537.764;  174.631;   17.870;   98.235
538.045;  -40.777; -543.134; -371.758
538.326;  -35.428; -596.129; -447.768
538.607;   20.213; -686.127; -476.771
538.888;  182.814;   98.879;    5.218
539.169;  192.734; -704.122; -535.781
539.450;  339.294;  236.871;   16.233
539.731;  221.618; -361.121; -182.783
540.012;  129.123;  199.880;  412.216
540.293;   86.360;   82.876;  158.224
540.574;   -9.992; -895.113; -717.796
540.855;  462.867;  435.879;  377.218
541.136;  538.356;   47.878;  139.220
541.416;  280.463; -161.130; -220.766
541.697;  204.024; -274.131; -170.763
541.978; 1077.417; -270.135; -315.757
542.259; 1377.313; -211.127; -236.771
542.539;  657.506; -191.116; -186.790
542.820;  189.107;  461.875;  480.225
543.101;  115.728;  -52.145;  -77.738
543.381;   19.787; -638.127; -591.771
543.662;  270.235;  159.873; -254.771
543.942;  600.758; -751.127; -830.770
544.223; 1098.708;  193.878;  161.219
544.504;  718.866; -275.124; -182.777
544.784;  602.469; -592.126; -408.773
545.065; 1703.485;  104.884; -254.791
545.345; 2036.332;  227.881;   14.215
545.626; 1323.632;  -14.113; -108.796
545.906;  906.181;   77.869;   98.235
546.186;  387.298;   92.874;  -95.773
546.467;  201.918;   99.877;  -95.778
546.747;  335.031;  264.884;  327.210
547.027;  385.339;   91.876;  111.223
547.308;  332.883; -376.127; -530.770
547.588;  412.347;  299.871;  371.232
547.868;  209.732;  458.870;  588.235
548.149;  219.842;  609.885;  593.207
548.429;  149.286; -347.127; -299.771
548.709;  192.173; -645.120; -461.784
548.989;  488.841;   84.882;   88.213
549.269; 2204.139;   10.868;  139.239
549.550; 5055.672;  215.877;  117.222
549.830; 4516.600; -758.111; -556.799
550.110;  914.132; -468.110; -320.801
550.390;  871.128; -128.122;  -56.779
550.670; 1183.478; -868.114; -783.795
550.950;  851.616; -509.121; -471.782
551.230;  209.587;  549.879;  460.218
551.510;   -1.310; -381.121; -326.782
551.790;   29.915; -173.109; -127.803
552.070;  288.668;  940.877; 1181.223
552.350;  424.261; -492.119; -377.786
552.630;  611.935;   -2.121;   77.219
552.909;  381.485;  181.884;   73.209
553.189;  254.996;  -49.132;   33.237
553.469;  199.085; -703.119; -514.786
553.749;  203.739; -469.127; -357.772
554.029;  174.201;   33.883;  -24.790
554.308;  157.771; -154.115;  -37.794
554.588;   74.631; -196.128; -204.770
554.868;   72.367; -366.121;  -47.782
555.147;  168.993; -114.115;  -46.793
555.427;  622.763; -260.116; -250.792
555.707; 4069.891; -284.115; -200.793
555.986; 4889.153; -719.111; -538.800
556.266; 2623.055;   23.884;   72.210
556.546;  126.915; -888.121; -675.782
556.825;  278.226; -657.114; -556.794
557.105; 1873.129; -125.128;   17.230
557.384; 2187.259;  122.884;  187.209
557.664;  844.037; -717.116; -508.792
557.943;  127.966; -557.121; -411.782
558.222;  181.244; -345.118; -344.788
558.502;  283.820; -116.115;  -76.793
558.781;  509.490;  194.885;  499.208
559.061;  437.094; -232.118; -227.788
559.340;  311.899;  302.883;  353.211
559.619;  742.579;   93.884;  148.210
559.899; 1078.451; -239.117; -266.789
560.178;  984.894; -778.115; -593.793
560.457; 3327.252; -623.117; -562.790
560.736; 4547.004; -472.111; -482.800
561.015; 3074.452; -500.128; -502.769
561.295;  397.810;  180.893;  215.193
561.574;  346.192;  119.885;  116.207
561.853;  524.144;  274.891;  303.197
562.132;  512.947;  -45.114;  182.206
562.411;  455.711;  396.879;  553.219
562.690;  151.790; -592.115; -458.792
562.969;  144.439;  472.888;  630.203
563.248;  522.833; 2966.878; 2487.219
563.527;  281.604; -290.111; -408.800
563.806;  408.386; -650.127; -521.771
564.085;  439.975; -297.105; -206.810
564.364;  253.204; -594.117; -405.790
564.643;  544.836; -276.121; -223.781
564.922; 1972.188;  221.890;  397.198
565.201; 1972.917; -640.109; -700.803
565.479;  859.314; -297.115; -219.792
565.758;  340.254; -810.128; -712.770
566.037;  494.218; -155.109; -100.803
566.316;  256.284; -286.116;  -28.791
566.595;   53.342;  -17.115;  -12.793
566.873;   81.556; -166.111;  -79.801
567.152;  -72.786; -490.113; -590.797
567.431;   10.880; -113.116;    6.210
567.709;    4.360; -344.107; -212.807
567.988;  277.550; -810.114; -769.794
568.266;  558.316; -160.115;  -68.793
568.545;  402.972; -644.100; -514.819
568.824;  602.713;  160.885;  356.208
569.102;  561.550; -351.114; -235.794
569.381;  245.337; -492.116; -407.792
569.659;  -40.290; -553.113; -553.796
569.938;   21.582; -743.122; -465.780
570.216;  102.321; -225.109; -225.804
570.494;  -18.822; -632.114; -572.795
570.773;   42.415;  202.879;  114.218
571.051;    6.996; -373.123; -357.778
571.330;   50.683; -221.113; -174.796
571.608;   49.490; -181.098; -173.823
571.886;  -65.827; -671.111; -581.799
572.164;  -65.183; -739.121; -621.782
572.443;  -48.921; -562.105; -512.811
572.721;  -35.622; -399.117; -289.790
572.999;  -36.254; -280.117; -168.788
573.277;   94.547;  379.894;  620.191
573.555;  312.849;   94.894;   37.190
573.834; 1426.821;  -86.117; -114.788
574.112; 1635.138;  880.893;  811.193
574.390;  520.380; -143.111;  -96.801
574.668;   -1.910;  -91.112;  -61.797
574.946;   -6.375; -165.106; -187.810
575.224;    0.242;   71.891;  -16.803
575.502;   -5.643; -200.116; -204.791
575.780;  -93.584; -767.112; -829.798
576.058;  156.904; 1589.889; 1004.200
576.336;  -16.565; -210.110; -129.801
576.614;  -47.134; -511.112; -340.798
576.891;   57.596; -711.115; -823.794
577.169;  513.079; -158.108; -285.805
577.447;  606.437;  169.893;  202.193
577.725;  272.870;  629.888;  854.201
578.003;   13.718;  -71.112; -371.798
578.280;   85.613; -208.104; -242.812
578.558;   71.620; -450.115; -422.793
578.836;  123.428; -210.114; -145.795
579.114;   45.439; -630.112; -670.797
579.391;   69.973;   -6.117;  -18.789
579.669;  -72.403; -595.114; -704.794
579.947;  173.359; -326.107; -127.806
580.224;  326.634; -692.107; -524.806
580.502;  330.613;  127.893;   76.193
580.779;   32.928;  -42.117;   75.210
581.057;  -87.154; -584.109; -470.804
581.334; -103.022; -726.102; -695.815
581.612;   35.350;   54.895;  511.190
581.889;  -23.409;  -83.101; -129.818
582.167;  -27.970; -298.099; -190.821
582.444; -106.690; -845.102; -814.817
582.721;  104.986;  657.899;  715.183
582.999;   64.427; -326.100; -167.821
583.276;  555.625; -812.123; -713.779
583.553;  743.306; -364.102; -294.816
583.831;  254.909; -607.104; -631.812
584.108;   52.802;  349.892;  174.195
584.385;    3.927; -122.102;  -98.815
584.662;  -81.619; -651.111; -828.801
584.940;   25.130;  204.889;  204.199
585.217;  -18.315;  -73.113; -303.796
585.494;   42.889;   71.890;  118.198
585.771;  207.197; -250.109; -354.804
586.048;  537.609; -196.113;  -76.796
586.325;  326.284; -721.110; -773.801
586.602;  104.963;  230.896;  213.188
586.879;   -9.201; -499.100; -580.820
587.156;   68.826; -156.105; -331.810
587.433;  -37.792; -701.102; -667.817
587.710;   51.817;  152.888;  234.202
587.987;  303.581; -264.105; -236.811
588.264;  816.468;  315.888;  387.202
588.541; 1400.241;  -61.104;   26.187
588.818; 2778.824;   72.892;  171.196
589.095; 2355.511; -163.104; -174.812
589.371;  388.020; -459.109; -414.804
589.648;   36.063; -581.107; -437.807
589.925;   14.054; -517.114; -621.795
590.202;    8.291; -741.112; -607.798
590.478;   98.083; -166.105;  -73.811
590.755;  285.605; -241.108; -132.806
591.032; 2586.011; -741.110; -699.802
591.308; 3540.405; -732.094; -790.831
591.585; 1845.810; -573.110; -560.802
591.862;  150.535;-1056.102; -950.817
592.138;   57.603; -475.108; -474.805
592.415;  152.864; -486.104; -495.813
592.691; 1523.287;  460.896;  518.188
592.968; 1920.342; -208.098; -123.824
593.244;  920.506; -695.116; -595.790
593.521;   76.860; -105.102;  -42.817
593.797;  -18.071; -810.122; -720.780
594.074;  329.729; -611.096; -588.826
594.350;  664.390;  828.905;  729.172
594.626;  308.406; -303.111; -283.801
594.903;  105.111; -643.101; -645.817
595.179;  203.243;  243.896;  418.187
595.455;   -3.336; -136.107; -150.807
595.731;    0.744;  -19.103;  -38.814
596.008;  -28.574; -464.111; -434.800
596.284;   46.951; -187.100; -242.820
596.560;   66.561; -501.093; -493.833
596.836;  210.403; -173.105;  -70.810
597.112;  356.378; -582.108; -437.805
597.388;  306.902;  -49.097;  -48.826
597.665;  117.712;  437.887;  530.203
597.941;  -62.460; -572.089; -658.839
598.217;   27.239; -323.110; -293.802
598.493;  272.473;   61.891; -204.804
598.769;  507.171; -175.100;  -50.819
599.045;  305.381; -490.108; -562.806
599.321;   52.600; -193.100; -261.820
599.597;  144.573; -355.109; -476.804
599.872;  498.766;  409.896;  429.187
600.148;  379.729;  -61.097; -172.826
600.424;  305.461;   91.893;  202.193
600.700;  245.113; -170.107; -280.807
600.976;  134.798; -442.097; -464.825
601.252;  229.644; -226.109; -272.803
601.527;  218.541; -833.104; -840.813
601.803;  136.059; -453.105; -404.812
602.079;  205.046; -124.100; -118.819
602.354;  570.246; -620.092; -531.835
602.630;  835.610; -140.113; -482.796
602.906; 2465.516; -910.101; -863.818
603.181; 6917.985; -627.119; -534.786
603.457; 5912.451;   98.903; -278.826
603.733;  884.344; -605.120; -626.783
604.008; 1028.300; -245.106; -164.810
604.284; 3173.137; -636.101; -580.817
604.559; 2739.120;   -3.112;  -42.799
604.835;  521.078; -163.105; -225.810
605.110;  436.930; -732.099; -892.821
605.385;  722.464;  224.907;  267.167
605.661;  689.868; -625.095; -729.829
605.936; 1216.482; -664.108; -737.806
606.211; 1023.026;  -17.103; -170.815
606.487;  208.749; -329.114; -376.794
606.762;    9.911; -791.119; -745.786
607.037;  -34.572; -501.105; -433.810
607.313;  -57.614; -589.096; -574.828
607.588;   -6.950; -375.106; -137.810
607.863;   35.465;  -28.101; -143.818
608.138;  183.388;  513.890;  516.198
608.413;   23.859; -576.099; -592.822
608.688;   50.303; -203.108; -267.805
608.964;  207.919; -509.106; -218.809
609.239;  264.526; -107.105; -212.810
609.514;  260.758;  281.895;  240.188
609.789;  675.113; -187.104; -716.812
610.064;  903.085; -435.096; -609.827
610.339;  927.745; -855.109; -799.804
610.614; 1232.201; -131.100; -315.820
610.889;  700.084;  215.895;  107.188
611.163;   31.534; -407.104; -591.812
611.438;   62.000;   81.886; -167.794
611.713;    9.237; -467.101; -499.817
611.988;   60.664; -144.101; -328.818
612.263;  -25.472; -771.102; -717.815
612.538;  217.134;  385.887;  251.204
612.812;  182.277; -832.100; -911.820
613.087;  146.890; -358.098; -338.823
613.362;  -53.636; -497.107; -557.807
613.637;   47.497;  261.897;  138.186
613.911;   -1.278; -256.092; -345.835
614.186;  135.412; -249.107; -292.807
614.460;  705.415; -842.081; -758.854
614.735;  811.664;  -55.087;  -17.843
615.010;  178.204;   43.912;  -82.841
615.284;  249.602;  360.892;  246.195
615.559;  381.395; -792.092; -955.835
615.833;  329.732;  -76.099;  -87.822
616.108;    4.307; -225.090; -390.837
616.382;  134.740;  274.913;  402.156
616.656;  186.033; -241.090; -232.837
616.931;  515.633; -785.099; -700.822
617.205; 1092.967; -973.104; -979.813
617.480; 1006.705;  -91.125;    6.225
617.754;  169.102; -396.125; -128.774
618.028;    6.748; -369.129; -382.768
618.302;   60.451;   73.892;  -25.805
618.577;  -39.077; -371.103; -518.815
618.851;  -75.634; -399.109; -600.803
619.125;  -40.771; -335.134; -378.759
619.399;  -35.558; -244.104; -374.813
619.673;  -43.787; -330.115; -515.792
619.947;  -48.047; -333.114; -448.795
620.222;  -23.793; -198.110; -204.801
620.496;   11.142;  -47.121;  -96.782
620.770;   25.658; -187.122;  -93.781
621.044;  195.126;  323.895;  346.190
621.318;  758.245; -653.120; -614.783
621.592;  671.842; -430.121; -409.783
621.866;  382.171; -476.112; -572.799
622.140;   33.257; -207.116; -356.791
622.413;   51.500;  138.889;  112.200
622.687;  -45.688; -746.101; -492.817
622.961;   16.976; -130.108; -143.805
623.235;  -63.974; -633.111; -661.800
623.509; -100.617; -816.105; -848.811
623.783;    8.935;  -12.107;   48.193
624.056;   -7.879; -254.120; -280.783
624.330;   64.390;   63.888;   -3.797
624.604;   45.629; -271.116; -355.790
624.877;   76.012;  180.890;   26.198
625.151;   32.323; -249.114; -238.794
625.425;  -35.656; -150.103; -283.814
625.698;  -61.370; -367.119; -374.785
625.972;  -88.036; -799.110; -765.802
626.245;   81.531;  685.884;  484.210
626.519;  -55.350; -426.120; -340.784
626.792;  -35.337; -192.107; -380.807
627.066; -106.574; -485.122; -662.779
627.339; -102.690; -736.110; -663.802
627.613;   30.948;  351.880;  148.216
627.886;  -67.684;  187.891; -612.803
628.160;  -17.206;  312.880; -161.783
628.433; -105.692; -695.125; -703.775
628.706;  -78.475; -517.120; -615.784
628.979;   27.289;  296.876;  117.223
629.253;  -89.440; -785.119; -833.786
629.526;  388.467; -334.126; -253.772
629.799;  355.146; -641.123; -479.778
630.072;  162.725; -497.128; -516.769
630.346;  -58.919;-1115.116;-1080.790
630.619;  454.264; -467.107; -545.808
630.892;  657.202;  709.889;  593.200
631.165;  345.967;  790.896;  679.187
631.438;  -88.057;-1092.112;-1055.798
631.711;   54.799;  453.877;  257.221
631.984;  -54.999; -523.117; -624.789
632.257;  -65.802; -636.117; -681.789
632.530;  -56.895; -412.119; -433.785
632.803;   31.746; -109.115;    7.207
633.076;  -79.207; -360.123; -422.777
633.349;    9.179;  173.872;  121.231
633.622;  -34.471; -187.119; -240.785
633.895; -127.805; -903.120; -823.783
634.167;  -78.306; -496.126; -525.773
634.440;   -7.488;  -19.116; -137.792
634.713;   -4.566;  -22.119; -120.786
634.986;   76.168;  593.871;  453.233
635.258;  -71.031; -507.115; -597.793
635.531;  103.944;  742.882; -343.788
635.804;  -30.500; -303.117; -318.789
636.077;  -94.542; -830.116; -852.791
636.349;   -3.408; -586.115; -474.793
636.622;  406.092; 1695.874; 1392.228
636.894;  240.400; -474.120; -909.784
637.167;  152.386; -836.127; -789.771
637.439;   21.932; -278.128; -213.770
637.712;  -43.732; -312.126; -293.772
637.984;  -88.841; -635.116; -707.791
638.257;  396.993;  515.877;  488.222
638.529;  575.609; -881.125; -924.776
638.802;  245.874; -508.128; -449.769
639.074; -123.292; -927.122; -952.781
639.346; -125.505; -942.135; -930.757
639.619;   -6.144;  -79.142; -319.744
639.891;   -4.924;  -83.122; -168.779
640.163;  -89.447; -689.122; -756.780
640.435;   41.055;  273.878;  103.220
640.708;   -2.068;  -72.122; -132.780
640.980;  -34.991; -366.122; -362.781
641.252;  188.761;  -25.121;  -71.781
641.524; 1838.462;  580.879;  573.219
641.796; 1819.489;-1094.121; -907.782
642.068;  317.316; -191.121; -300.782
642.340;  -74.857; -486.121; -566.783
642.613;   40.545;  294.880;  323.217
642.885;  -99.454; -787.120; -878.783
643.157;  -42.727; -810.120; -658.784
643.428;   60.775;  170.880;  218.216
643.700;  -79.898; -498.120; -425.784
643.972;  -37.446;  -16.119; -133.785
644.244;  -91.744; -474.119; -559.785
644.516;  -47.143; -250.119; -114.786
644.788;   67.559;  662.881;  548.214
645.060;  -34.864;  -12.119; -124.786
645.332; -103.637; -525.118; -535.787
645.603;   32.640;  479.882;  342.213
645.875;  -81.483; -334.118; -369.787
646.147;  169.143; 1487.882; 1242.212
646.418;  -69.730; -931.117; -918.788
646.690;  139.047; -714.117; -715.789
646.962;   42.399; -413.117; -451.789
647.233;  -20.799;   15.883;   11.211
647.505; -107.323; -595.117; -475.790
647.776;   25.479;  328.884;  229.210
648.048;   -9.594; -248.116; -418.790
648.320;  -77.717; -752.116; -679.791
648.591; -164.840;-1055.116; -958.791
648.862;  -79.013; -505.116; -577.792
649.134;   13.538;  115.885;  198.208
649.405;  -52.060; -661.115; -618.792
649.677;  -60.033; -475.115; -598.793
649.948;   -9.406; -181.115; -296.793
650.219;   -2.304;  -37.115; -147.793
650.491;  -96.778; -431.114; -520.794
650.762; -116.176; -705.114; -731.794
651.033;  -88.099; -437.114; -424.795
651.304;  -92.272; -743.114; -728.795
651.576;  -65.095; -680.114; -645.795
651.847;  -37.693; -250.113; -140.796
652.118;  -43.692;  -32.113; -189.796
652.389; -118.540; -639.113; -722.796
652.660;  -35.338; -147.113;  -89.797
652.931; -145.561; -897.112; -871.797
653.202;  -91.184; -382.112; -541.798
653.473;  -77.682; -633.112; -533.798
653.744;  167.269; -595.112; -590.798
654.015;  143.796; -356.112; -303.799
654.286;  -76.552; -642.111; -663.799
654.557;  -55.475; -586.111; -521.799
654.828; -162.923;-1114.111;-1088.800
655.099;  -96.647; -404.111; -291.800
655.370; -107.220; -427.111; -543.801
655.641; -120.718; -656.110; -714.801
655.911; -106.891; -618.110; -638.801
656.182;   38.861;  437.890;  387.198
656.453;   86.313;  830.890;  746.198
656.724;  -81.611; -466.110; -426.802
656.994;  -92.184; -553.109; -568.803
657.265; -127.232; -862.109; -873.803
657.536;  -85.605; -500.109; -377.804
657.806; -105.428; -561.109; -593.804
658.077; -136.301; -866.109; -950.804
658.347;  -95.775; -523.108; -598.805
658.618; -116.423; -646.108; -694.805
658.888;  -16.546;  -41.108;  112.195
659.159;  -93.669; -432.108; -548.806
659.429;  -13.267; -292.108; -349.806
659.700;   12.209; -435.107; -390.807
659.970;  -13.039; -370.107; -359.807
660.241;   14.563; -754.107; -921.807
660.511;  511.990; -147.107; -174.808
660.781;   91.317; -793.106; -748.808
661.052;  -51.106; -222.106; -381.808
661.322;  -26.805;   21.894;   -9.809
661.592;    3.897;  257.894;  148.191
661.862;  -77.601; -369.106; -382.810
662.133; -120.274; -551.105; -502.810
662.403; -126.622; -770.105; -676.810
662.673;  -52.570; -256.105; -213.811
662.943; -107.344; -612.105; -551.811
663.213;   -1.442;  -85.105;  -81.811
663.483;  -86.190; -593.104; -568.812
663.753;  -71.838; -194.104; -152.812
664.023;  -21.761;   68.896;  -32.813
664.293;  -72.360; -319.104; -126.813
664.563; -121.783; -694.104; -648.813
664.833; -126.831; -743.103; -608.814
665.103; -131.729; -730.103; -793.814
665.373; -114.377; -766.103; -806.814
665.643;  -95.575; -863.103; -918.815
665.913;   42.451; -534.103; -714.815
666.182;  136.653; -685.102; -719.816
666.452;  280.355;  -22.102;  -89.816
666.722;  -30.018; -724.102; -784.816
666.992; -146.541; -948.102; -921.817
667.261; -102.214; -824.102; -808.817
667.531;  212.062;  134.899;   45.183
667.801;  534.239; -440.101; -412.818
668.070;  222.216;  714.899;  697.182
668.340;  -99.282; -883.101; -840.819
668.609;   91.020;  588.900;  301.181
668.879;  -86.129; -490.100; -558.819
669.149;  -69.627; -539.100; -516.820
669.418; -107.225; -698.100; -726.820
669.688;  -25.698; -482.100; -666.820
669.957;   79.729; -423.099; -546.821
670.226;  -21.769; -268.099; -331.821
670.496; -100.943; -431.099; -635.822
670.765;  -83.166; -418.099; -501.822
671.034; -141.214; -872.099; -828.822
671.304;   -0.537;   55.902; -111.823
671.573; -147.385;-1085.098; -957.823
671.842;   96.891; -380.098; -294.823
672.112;   20.543; -692.098; -586.824
672.381;    0.195; -239.098; -214.824
672.650; -136.403;-1005.097;-1021.825
672.919;  -89.526; -631.097; -507.825
673.188;  -95.199; -681.097; -878.825
673.457; -154.598;-1101.097;-1143.826
673.726;  -77.246; -579.096; -646.826
673.995;  -54.744; -533.096; -479.826
674.265;  -17.917; -263.096; -333.827
674.534;    1.910; -183.096; -235.827
674.802;    6.287; -618.096; -703.828
675.071; 1065.788; -886.095; -801.828
675.340; 4045.340; -464.095; -339.828
675.609; 1344.867;  103.905;   82.171
675.878;   80.744; -949.095; -893.829
676.147;   44.046;  -26.095;   -8.829
676.416;  101.447; -210.094; -294.830
676.685;  774.449; 1000.906; -622.830
676.953;  110.601; -603.094; -452.831
677.222;  -21.847; -193.094; -273.831
677.491;  -36.120;  -24.094; -127.831
677.759;  -23.693;   11.907;  172.168
678.028;  -16.267; -279.093; -222.832
678.297;    0.435;   71.907;  197.168
678.565; -153.288; -898.093; -944.833
678.834;  -64.061; -311.093; -268.833
679.102;  -69.034; -411.092; -391.834
679.371; -151.732; -898.092; -727.834
679.639; -133.506; -797.092; -786.834
679.908; -118.679; -794.092; -724.835
680.176; -159.702; -895.091; -941.835
680.445;  -86.025; -346.091; -352.835
680.713;  -24.948;  -58.091;  -23.836
680.982; -106.472; -523.091; -525.836
681.250; -110.595; -578.091; -507.837
681.518;  -90.743; -534.090; -751.837
681.787;  -22.566; -204.090; -167.837
682.055;  -67.314; -490.090; -422.838
682.323; -151.387; -993.090; -992.838
682.591;   31.589; -216.090; -538.838
682.859;   87.241;    9.911;  -35.839
683.128;   21.293;  232.911;  497.161
683.396; -173.880;-1102.089;-1122.840
683.664;  -35.503; -241.089;   21.160
683.932;   -3.176;  144.911;  -76.840
684.200;  -97.750; -576.088; -320.841
684.468;  -23.898;  -73.088; -124.841
684.736;  -34.546; -214.088; -175.841
685.004; -124.769;-1024.088; -982.842
685.272;  -53.742; -880.088; -774.842
685.540;  -68.941; -499.087; -557.843
685.808;  -79.839; -651.087; -682.843
686.076; -105.962; -894.087; -969.843
686.343;  -52.560; -601.087; -815.844
686.611;   45.092; -195.087; -224.844
686.879;  507.444; -530.086; -553.844
687.147; 3410.445; -483.086; -480.845
687.414;  956.272;  -12.086; -169.845
687.682;    5.274; -658.086; -757.846
687.950;  306.051;  259.915;  263.154
688.217;    9.328; -792.085; -760.846
688.485;  -12.920; -632.085; -636.847
688.753;  546.931;  -11.085; -102.847
689.020;  160.558; -820.085; -851.847
689.288; -101.890; -853.084; -787.848
689.555;  -34.413; -195.084; -148.848
689.823;  -45.286; -241.084; -345.849
690.090;  -91.135; -546.084; -651.849
690.358; -159.508; -877.084; -897.849
690.625;   -0.131;  120.917;   45.150
690.892;  -85.879; -403.083; -369.850
691.160;  -17.752;   72.917;  -35.850
691.427;   -1.350;  141.917;  130.149
691.694; -139.474; -855.083; -929.851
691.962; -155.572;-1177.082;-1060.852
692.229;   25.930;  127.918;   56.148
692.496;   77.682;  130.918;  -49.852
692.763;   11.359; -164.082; -201.853
693.031;  -76.890; -739.082; -716.853
693.298;  -45.863; -509.081; -368.853
693.565;  327.589; -155.081; -163.854
693.832; 1284.066;   -5.081;   -9.854
694.099;  148.668; -643.081; -642.855
694.366;  -58.580; -882.081; -896.855
694.633;  -37.254; -920.080; -633.855
694.900;  783.298; 4367.920; -114.856
695.167;  425.100; -214.080; -380.856
695.434;   97.777; -646.080; -623.856
695.701;  190.329;  121.921;  -61.857
695.968;  481.631; -365.079; -361.857
696.234; 1035.882; -415.079; -646.858
696.501;10382.384; -776.079; -614.858
696.768; 5145.636; -554.079; -617.858
697.035;  329.688; -632.078; -667.859
697.302;   24.215; -448.078; -552.859
697.568;   -7.109; -458.078; -497.859
697.835;  -53.432; -683.078; -624.860
698.102;  -37.430; -498.078; -407.860
698.368;   63.447;  384.923;  396.139
698.635;  -27.126;  -47.077; -424.861
698.901;  -32.474; -240.077; -348.861
699.168;   86.102; -534.077; -456.862
699.435;   69.929;  -72.077;  -13.862
699.701; -121.144; -868.076; -764.862
699.968;  -65.817;  144.924; -441.863
700.234; -105.665; -783.076; -822.863
700.500;  -63.613; -448.076; -539.864
700.767;   -5.162;   -1.075;   26.136
701.033; -137.710;-1015.075; -963.864
701.299;  -65.108; -450.075; -483.865
701.566;  124.744;  950.925;  763.135
701.832;   30.746;  -31.075;  -76.865
702.098; -102.378;-1054.074;-1034.866
702.365;  -83.676;-1098.074;-1030.866
702.631;   -9.024;-1038.074;-1063.867
702.897; 1405.678; -765.074; -676.867
703.163; 2236.355;  348.926;  254.133
703.429;  145.832; -256.073; -273.868
703.695;  -45.692; -796.073; -792.868
703.961;   18.735; -214.073; -210.868
704.227;  -68.313; -630.073; -725.869
704.493;  122.689;  613.927;  510.131
704.759;  -24.309; -565.072; -540.870
705.025;   15.393; -203.072; -194.870
705.291;  -12.156; -666.072; -562.870
705.557;  184.971;  719.928;   34.129
705.823;   20.973; -742.072; -694.871
706.089;  141.500; -307.071; -326.871
706.355;  360.227; -315.071; -244.872
706.620; 5553.503; -776.071; -729.872
706.886; 7600.705; -309.071; -362.873
707.152;  735.357; -818.070; -973.873
707.418;  -45.491;-1153.070;-1186.873
707.683;   -1.189; -550.070; -530.874
707.949;  -52.462; -547.070; -578.874
708.215;    3.789; -129.070; -207.874
708.480;  -36.609; -520.069; -420.875
708.746;  107.018;   68.931;   28.125
709.011;  -58.605; -578.069; -612.876
709.277;  -78.078; -538.069; -543.876
709.542;  -44.102; -428.069; -387.876
709.808;   -1.550;  -59.068;   89.123
710.073;  -91.573; -577.068; -695.877
710.339;  -37.496; -242.068; -228.877
710.604;   75.781; -780.068; -845.878
710.869;  330.733; -277.068; -366.878
711.135;  -78.866; -715.067; -628.879
711.400;  -90.039; -507.067; -608.879
711.665;  -71.087; -404.067; -479.879
711.931; -102.410; -661.067; -677.880
712.196; -124.308; -876.067; -954.880
712.461;  112.769; -402.066; -490.880
712.726;  137.095; -727.066; -771.881
712.991;  -82.278; -647.066; -664.881
713.256;  -48.551; -350.066; -332.882
713.521;  -56.249; -417.065; -381.882
713.787;  -74.822; -454.065; -472.882
714.052;  -20.271; -214.065; -400.883
714.317;  -82.319;-1045.065; -981.883
714.581; 1009.833; -374.065; -268.883
714.846; 1354.460; -822.064; -888.884
715.111;  140.087;  261.936;  257.116
715.376;  -32.961;  -86.064; -223.885
715.641;  -21.685; -365.064; -367.885
715.906;  291.867;   15.936; -551.885
716.171;  146.919;  221.937;  209.114
716.436;   41.496;  -78.063; -104.886
716.700; -116.477; -818.063; -692.886
716.965; -127.250; -794.063; -807.887
717.230;  -76.299; -339.063; -392.887
717.494;  -31.397;  -40.062; -134.888
717.759;  -87.170; -784.062; -640.888
718.024;  -10.843;  269.938;  250.112
718.288;   53.934;  685.938;  395.111
718.553; -150.715; -803.062; -977.889
718.817; -156.988; -883.061; -899.889
719.082;  -37.186; -115.061; -125.890
719.346; -146.059;-1000.061; -947.890
719.611;  -43.707; -300.061; -255.891
719.875; -105.830; -568.060; -537.891
720.140;  -66.329; -453.060; -603.891
720.404;   36.998; -136.060; -249.892
720.668;  874.325; -475.060; -411.892
720.933;  334.902;  146.940;  137.108
721.197;  -98.246; -667.059; -600.893
721.461; -141.344; -851.059; -826.893
721.725;   -7.118;  -21.059; -250.894
721.990;  -61.116; -284.059; -204.894
722.254;  -31.614;  -26.059; -108.894
722.518;  -77.337; -286.058; -442.895
722.782;  -93.310; -743.058; -594.895
723.046;  112.516;  614.942;  570.105
723.310;   30.943;  374.942;  210.104
723.574; -106.955; -654.058; -614.896
723.838; -108.428; -576.057; -642.897
724.102;  -45.451; -226.057; -239.897
724.366; -151.024;-1032.057; -978.897
724.630; -110.123; -749.057; -571.898
724.894;  -90.846; -722.057; -514.898
725.158;  -21.119;   38.944; -295.898
725.422;  -59.542; -394.056; -327.899
725.685;  -73.115; -441.056; -349.899
725.949;  -94.538; -566.056; -519.900
726.213;  -57.012; -732.056; -811.900
726.477;  172.340;-1020.055; -933.900
726.740;  129.617; -274.055; -104.901
727.004;  346.944; -384.055; -510.901
727.268; 3346.771; -442.055; -400.901
727.531;  863.372; -961.055; -775.902
727.795;  -45.826; -713.054; -673.902
728.059;  -75.274; -552.054; -557.903
728.322;  -79.672; -841.054; -669.903
728.586;   16.405; -692.054; -701.903
728.849;  -86.668; -695.053; -756.904
729.112; -101.867; -812.053; -912.904
729.376; -127.340; -959.053; -905.904
729.639;  -94.288; -536.053; -536.905
729.903; -117.636; -733.053; -699.905
730.166;  -39.359; -437.052; -399.906
730.429;  -26.433; -317.052; -468.906
730.693;  -71.631; -355.052; -894.906
730.956;  233.271;  810.948;  651.093
731.219;  724.048; -310.052; -103.907
731.482;  127.350;-1003.051; -894.907
731.745;   92.802; -794.051; -935.908
732.009;   15.353;  -30.051;   50.092
732.272; -102.370; -904.051; -771.909
732.535;  -41.068; -300.051; -310.909
732.798; -164.366;-1083.050;-1166.909
733.061;  -68.439; -430.050; -456.910
733.324;  -17.362;   31.950; -180.910
733.587;   67.864;  290.950;  365.090
733.850;  -71.109; -973.049;-1050.911
734.113;   34.343;   33.951;   32.089
734.376;    8.920; -328.049; -447.912
734.639;  222.297; 1188.951; 1011.088
734.901;   70.948; -180.049; -402.912
735.164;  535.400; -883.048; -837.913
735.427; 1311.477; -166.048; -355.913
735.690;  119.279; -205.048; -234.913
735.952;  -36.719; -923.048; -925.914
736.215;  -31.242;-1113.048;-1009.914
736.478;   32.109; -771.047; -774.915
736.740;  211.036;   33.953;  129.085
737.003;  734.738; -658.047; -672.915
737.266; 4178.990;  -94.047;   46.084
737.528;  438.292; -682.047; -660.916
737.791;  304.119; -316.046; -327.916
738.053;  826.795;  465.954;  649.083
738.316;11028.097; -162.046; -136.917
738.578; 7356.749; -770.046; -736.918
738.841;  420.851; -382.046; -446.918
739.103;  169.078; -875.045; -777.918
739.365;  509.004;   79.955;  -69.919
739.628;  -10.544; -884.045; -805.919
739.890;  -21.617; -758.045; -710.919
740.152;  -41.965; -692.044; -754.920
740.414;   -2.963; -408.044; -359.920
740.677;  -33.111; -785.044; -634.921
740.939;  -35.135; -587.044; -487.921
741.201;  295.067; -432.044; -572.921
741.463;   31.919; -689.043; -745.922
741.725;   -9.679;  -21.043; -199.922
741.987;   59.723;  220.957;  116.078
742.249;  -12.725; -751.043; -859.923
742.511;  219.351; -703.043; -794.923
742.773;    8.878; -546.042; -546.924
743.035;  132.080;  796.958;  533.076
743.297;  -40.793; -963.042;-1013.924
743.559;  756.834; -278.042; -262.925
743.821;   53.410; -735.042; -744.925
744.083;   19.762;  -44.041; -149.925
744.345;  -89.811; -869.041; -892.926
744.607;   36.316;   75.959;  122.074
744.868;  -55.507; -490.041; -554.927
745.130; -109.980; -994.041;-1008.927
745.392;   41.421;   -1.040;  -44.927
745.653;  -16.477; -411.040; -378.928
745.915;  163.950;  896.960;  631.072
746.177;   45.052;   35.960;  -43.928
746.438;   -5.121; -428.040; -543.929
746.700;  -54.044; -947.039; -988.929
746.961;   -4.343; -659.039; -740.930
747.223;  129.059; -190.039;  -74.930
747.484;   84.836; -391.039; -471.930
747.746;  154.388;  -23.038; -106.931
748.007;  112.640; -647.038; -689.931
748.269;  304.666; -468.038; -440.931
748.530;  489.343; -852.038; -638.932
748.791;  242.245; -354.038; -420.932
749.053;  468.597;  286.963;  163.067
749.314;  468.999; -236.037; -169.933
749.575;  509.376; -945.037; -905.933
749.836;  886.852; -217.037;   86.066
750.098; 2618.954;  -60.037;  -21.934
750.359;37832.156;  414.964;  555.066
750.620; 9088.683; -121.036; -220.935
750.881; 1067.685; -585.036; -513.935
751.142; 1405.611; -950.036; -938.936
751.403;17308.788; -789.036; -705.936
751.664; 7137.690;-1034.035; -999.936
751.925;  477.092; -175.035; -262.937
752.186;  264.119; -298.035; -278.937
752.447;  134.821; -590.035; -445.937
752.708;   35.172; -532.035; -648.938
752.969;    9.849; -566.034; -576.938
753.230;  -25.849; -777.034; -672.939
753.491;   -6.047; -650.034; -631.939
753.751;   71.905;  109.966;   19.061
754.012;   91.607;  258.967;  181.060
754.273;   53.433; -174.033;  -71.940
754.534;    4.785; -487.033; -580.940
754.794;  -98.288; -926.033; -911.941
755.055;  134.789; 1051.967;  881.059
755.316;  -46.984; -700.032; -566.942
755.576;  -28.758; -606.032; -576.942
755.837;  -50.006; -527.032; -695.942
756.097;  -45.929; -530.032; -564.943
756.358;  -75.777; -725.032; -770.943
756.618;  -62.525; -705.031; -641.943
756.879;  -19.198; -254.031; -349.944
757.139; -126.597;-1098.031;-1116.944
757.400;  -51.545; -538.031; -553.945
757.660;  -19.518; -365.031; -401.945
757.920;   -4.466; -266.030; -228.945
758.181;  -16.814; -468.030; -351.946
758.441; -100.562; -870.030; -809.946
758.701;  -40.861; -308.030; -215.946
758.961;  -35.059; -220.030; -278.947
759.222;  -47.607; -574.029; -502.947
759.482;  -94.630; -683.029; -723.948
759.742;  -86.478; -706.029; -547.948
760.002;   10.898;  -83.029; -143.948
760.262;   15.200;   50.972;  182.051
760.522;  -49.523; -498.028; -574.949
760.782;  -48.171; -738.028; -612.949
761.042;  -26.994; -618.028; -573.950
761.302;   64.308;   55.972;  -18.950
761.562;   43.934; -164.027; -154.951
761.822;   75.286; -710.027; -551.951
762.082;  -40.337;-1104.027;-1093.951
762.342;   72.515; -328.027; -403.952
762.601;   71.167; -567.027; -506.952
762.861;  364.669; -281.026; -207.952
763.121;  415.170; -406.026; -411.953
763.381; 7682.222; -499.026; -485.953
763.640; 7900.624; -139.026; -307.954
763.900;  343.876; -242.026; -203.954
764.160;   74.453; -458.025; -491.954
764.419;   -5.046; -726.025; -782.955
764.679;  -84.844; -795.025; -726.955
764.939;  -16.642; -124.025; -210.955
765.198;  -89.065; -608.025; -563.956
765.458;  -88.563; -710.024; -612.956
765.717; -102.486; -454.024; -590.957
765.976;  -64.860; -428.024; -411.957
766.236;  -66.833; -475.024; -610.957
766.495;   13.094;  260.977;   73.042
766.755;  -97.779;-1090.023; -987.958
767.014;   14.648; -594.023; -665.958
767.273;  -54.076; -373.023; -397.959
767.533;  -53.249; -228.023; -307.959
767.792;  -35.172; -151.022; -188.960
768.051;  -47.795; -228.022; -276.960
768.310;  -90.093; -546.022; -650.960
768.569;   -0.866; -161.022;    4.039
768.828;  -38.265; -285.022; -363.961
769.088; -126.963;-1050.021; -942.961
769.347;  -89.011; -755.021; -599.962
769.606; -102.009; -876.021; -857.962
769.865; -122.282;-1016.021;-1033.963
770.124;  -15.780; -411.021; -336.963
770.383;  -62.229; -778.020; -910.963
770.641;  -21.352; -398.020; -400.964
770.900;  -73.775; -953.020; -846.964
771.159;  -38.473; -851.020; -951.964
771.418;  -23.196; -917.020; -779.965
771.677;  117.605; -224.019; -293.965
771.936;  133.332; -794.019; -865.966
772.194; 2341.484; -465.019; -437.966
772.453;10726.836; -213.019; -391.966
772.712;  712.738;  416.982;  329.033
772.970;  113.190;   32.982;   63.033
773.229;   73.941;  -22.018;  102.033
773.488;  -94.007; -814.018; -770.968
773.746;   55.395;  296.982;  335.032
774.005;    1.172;  190.983;  -22.969
774.263;   13.424;  243.983;  177.031
774.522;  -96.549; -422.017; -548.969
774.780;  -80.048; -484.017; -417.970
775.039;  -86.821; -551.017; -531.970
775.297;  -30.319; -135.016; -351.970
775.555; -110.492; -489.016; -612.971
775.814; -125.840; -618.016; -570.971
776.072; -133.639; -749.016; -740.971
776.330; -108.787; -630.016; -520.972
776.589; -132.960; -703.015; -721.972
776.847; -118.058; -645.015; -624.973
777.105; -170.456;-1016.015;-1032.973
777.363; -102.429; -459.015; -454.973
777.621; -153.253; -660.015; -717.974
777.879;  -29.676;  -42.014;   32.026
778.138;  -92.524; -554.014; -717.974
778.396; -109.547; -585.014; -526.975
778.654; -177.845;-1015.014; -970.975
778.912;  -65.693; -269.014; -371.976
779.170; -128.342; -880.013; -803.976
779.427; -141.140; -922.013; -897.976
779.685; -155.113; -880.013; -832.977
779.943;  -92.811; -654.013; -593.977
780.201; -154.884; -964.012; -883.978
780.459; -127.008; -651.012; -610.978
780.717;  -98.331; -440.012; -390.978
780.974; -110.204; -449.012; -490.979
781.232;  -86.027; -358.012; -338.979
781.490;  -83.750; -551.011; -472.979
781.747; -100.098; -555.011; -476.980
782.005;   25.678;  462.989;  254.020
782.263; -181.395; -542.011;-1004.981
782.520;  -86.993; -326.011; -501.981
782.778; -184.041;-1013.010;-1051.981
783.035; -163.439; -962.010; -938.982
783.293;  -61.112; -248.010; -206.982
783.550;  -57.736; -134.010; -198.982
783.808; -133.509; -764.010; -776.983
784.065; -160.807; -745.009; -874.983
784.322;  -43.930;   25.991;  -86.984
784.580; -151.428; -915.009; -771.984
784.837; -103.402; -392.009; -466.984
785.094; -141.700; -783.009; -762.985
785.352;  -82.573; -304.008; -404.985
785.609; -101.721; -934.008; -839.985
785.866;  -99.594; -345.008; -401.986
786.123;  -73.292; -639.008; -583.986
786.380; -103.166; -665.008; -604.987
786.637;  -47.464; -225.007; -380.987
786.895;  -31.562; -456.007; -543.987
787.152;  -54.760; -135.007; -267.988
787.409;  -43.883; -123.007; -225.988
787.666;  -96.632; -299.006; -378.988
787.923; -120.980; -616.006; -695.989
788.179; -105.378; -551.006; -584.989
788.436; -109.451; -585.006; -585.990
788.693;  -44.374;  -92.006;  -87.990
788.950;  152.503; -125.005; -112.990
789.207;  213.579; -381.005; -372.991
789.464;  -36.944; -161.005; -301.991
789.720;  -21.517;  150.995;  110.009
789.977; -178.865;-1003.005; -671.992
790.234;  -30.538;   44.996;  -66.992
790.490; -161.311; -884.004;-1031.993
790.747;   -8.135;  -85.004;   22.007
791.004;  -31.008; -426.004; -348.993
791.260;  -81.881; -430.004; -560.994
791.517; -107.904; -843.003; -788.994
791.773;  -58.477; -379.003; -342.994
792.030; -116.401; -596.003; -660.995
792.286; -100.024; -686.003; -636.995
792.543;  -11.922;  -74.002; -159.995
792.799;  -60.395; -584.002; -382.996
793.055; -165.118;-1179.002;-1210.996
793.312;  -96.616; -827.002; -816.997
793.568;  -67.465; -746.002; -599.997
793.824;    3.462; -226.001; -284.997
794.081;   13.339; -447.001; -508.998
794.337;   48.166; -664.001; -561.998
794.593; 1423.693; -319.001; -271.999
794.849; 6494.545; -746.001; -772.999
795.105;  317.046; -270.000; -261.999
795.361;    8.098; -490.000; -457.000
795.617;  -64.325; -875.000; -945.000
795.873;  -63.325; -360.000; -407.000
796.129;  -36.125; -368.000; -306.000
796.385;  -23.250; -124.000; -156.000
796.641;   54.700;  412.000;  550.000
796.897;  -79.700; -666.000; -635.000
797.153;   64.300;  453.000;  357.000
797.409; -114.500; -785.000; -868.000
797.665;  -86.900; -625.000; -732.000
797.921;  -74.800; -775.000; -762.000
798.176;  -59.375; -744.000; -747.000
798.432;  -38.525; -824.000; -596.000
798.688;  -85.375;-1174.000;-1078.000
798.943;   89.975; -165.000; -147.000
799.199;   -9.600;-1005.000; -959.000
799.455;  216.450;  369.000;  316.000
799.710;  119.725; -813.000; -380.000
799.966;  290.350; -162.000; -160.000
800.221;  482.900; -638.000; -721.000
800.477;10907.025; -743.000; -710.000
800.732; 8863.200; -773.000; -800.000
800.988;  622.025;  205.000;  -19.000
801.243; 1833.700; -454.000; -344.000
801.498; 7333.650; -814.000; -739.000
801.754;  390.450; -289.000; -163.000
802.009;   75.850; -257.000; -335.000
802.264;  -64.500; -967.000;-1033.000
802.520;   20.200;  222.000;   -3.000
802.775;  -65.225; -524.000; -359.000
803.030;   40.375;  395.000;  356.000
803.285; -128.875; -840.000; -903.000
803.540;  -76.275; -686.000; -699.000
803.795;  -35.650; -648.000; -583.000
804.051;  -38.900; -279.000; -346.000
804.306;   13.100;  168.000;  128.000
804.561;  135.825;  451.000;  362.000
804.816;  138.000;  714.000;  861.000
805.071;   15.300; -185.000; -280.000
805.325;  218.475; -257.000; -427.000
805.580; -114.275; -841.000; -877.000
805.835;  -33.725; -204.000; -297.000
806.090;  -91.825; -760.000; -676.000
806.345;  -15.075; -344.000; -264.000
806.600;  -29.100; -549.000; -632.000
806.854;  -36.850; -408.000; -538.000
807.109;   -8.875; -493.000; -577.000
807.364;   -8.400; -407.000; -328.000
807.618;   15.125; -415.000; -381.000
807.873;   33.275; -470.000; -494.000
808.128;   84.425; -257.000; -518.000
808.382;  102.600; -224.000; -332.000
808.637;   70.800; -440.000; -511.000
808.891;  161.850; -257.000; -180.000
809.146;   92.725; -902.000; -794.000
809.400;  262.100; -848.000; -923.000
809.654;  344.800; -779.000; -551.000
809.909;  505.500; -841.000; -927.000
810.163; 7212.250; -813.000; -651.000
810.418;17225.875; -940.000; -861.000
810.672; 1031.425; -685.000; -690.000
810.926;  732.475; -993.000; -973.000
811.180; 1428.150; -439.000; -372.000
811.434;32405.100;  240.000;  135.000
811.689;11792.475; -231.000; -365.000
811.943;  599.875; -936.000; -953.000
812.197;  322.750; -893.000; -671.000
812.451;  118.150; -379.000; -514.000
812.705;  -22.275; -809.000; -619.000
812.959;  -10.325; -263.000; -388.000
813.213;   -3.850; -283.000; -209.000
813.467;   61.925;  470.000;  253.000
813.721; -100.700; -764.000; -792.000
813.975; -126.300; -826.000; -877.000
814.229;   42.850;  430.000;  353.000
814.482;  -74.750; -517.000; -566.000
814.736; -139.200; -766.000; -744.000
814.990; -154.825; -779.000; -872.000
815.244;  -60.875; -228.000; -285.000
815.497; -104.200; -636.000; -601.000
815.751;  -16.575; -141.000;   82.000
816.005;  -88.000; -470.000; -586.000
816.258;  -67.100; -510.000; -363.000
816.512; -118.850; -693.000; -610.000
816.766;    8.050;  121.000;  157.000
817.019;   18.550;  148.000;  149.000
817.273; -132.375;-1000.000; -802.000
817.526;  -28.100; -206.000; -173.000
817.779;  -47.025;-1049.000; -960.000
818.033;  -87.800; -693.000; -807.000
818.286; -126.725; -725.000; -792.000
818.540; -107.000; -403.000; -403.000
818.793;  -87.425; -402.000; -489.000
819.046; -126.425; -582.000; -520.000
819.299;  -41.950; -157.000; -166.000
819.553; -121.375; -552.000; -592.000
819.806; -154.450;-1016.000; -838.000
820.059;  -65.725; -334.000; -354.000
820.312;    6.575;  152.000;  185.000
820.565;  -23.750;  110.000;  -27.000
820.818;  -44.400;  -59.000; -173.000
821.071; -168.325;-1041.000; -957.000
821.324; -104.575; -536.000; -540.000
821.577; -108.550; -457.000; -483.000
821.830;  -70.175; -270.000; -172.000
822.083; -139.450; -733.000; -288.000
822.336;  -51.675; -261.000; -167.000
822.589; -140.575; -805.000; -688.000
822.842; -147.350; -875.000; -770.000
823.094; -197.075;-1076.000;-1114.000
823.347; -139.900; -925.000; -729.000
823.600;   13.150;  402.000;  187.000
823.853;  -66.150; -311.000; -267.000
824.105;  -80.000; -331.000; -575.000
824.358; -108.700; -617.000; -716.000
824.611;   18.375;  234.000;   40.000
824.863;  -56.225; -612.000; -591.000
825.116;   45.625;  -33.000;   27.000
825.368;   89.700; -366.000; -372.000
825.621;  159.500; -186.000; -240.000
825.873;   77.125; -704.000; -737.000
826.126;  614.225; -669.000; -641.000
826.378;11912.550; -389.000; -505.000
826.630; 2648.175; -890.000; -898.000
826.883;   41.550; -754.000; -693.000
827.135;   33.825; -279.000; -270.000
827.387; -113.225; -893.000; -839.000
827.639;  -28.300;  -86.000;   32.000
827.892; -132.200; -742.000; -582.000
828.144; -153.875; -848.000; -804.000
828.396;  -45.925;  104.000;  -80.000
828.648; -115.475; -440.000; -333.000
828.900; -138.950; -702.000; -795.000
829.152; -136.725; -684.000; -683.000
829.404;  -73.950; -215.000; -267.000
829.656;  -65.475;  321.000;  214.000
829.908;  -34.325;  393.000;  229.000
830.160; -165.350;-1064.000;-1047.000
830.412; -105.700; -481.000; -430.000
830.664; -135.350; -557.000; -665.000
830.916;  -73.000; -268.000; -206.000
831.167; -175.900;-1073.000; -951.000
831.419; -121.575; -623.000; -566.000
831.671; -143.800; -764.000; -809.000
831.923;  -87.675; -311.000; -447.000
832.174;  -95.975; -273.000; -331.000
832.426; -113.150; -493.000; -582.000
832.678; -199.400;-1043.000;-1091.000
832.929; -164.025; -947.000; -935.000
833.181;  -66.325; -575.000; -677.000
833.432;  -58.750;  -59.000; -186.000
833.684;  -29.925;  112.000;  -27.000
833.935; -133.250; -610.000; -566.000
834.187; -134.400; -829.000; -823.000
834.438;  -36.550;  -58.000;  -25.000
834.689;  -67.125; -255.000; -123.000
834.941;  -60.550; -343.000; -244.000
835.192; -104.250; -590.000; -533.000
835.443; -109.325; -419.000; -506.000
835.695;  -22.925;  138.000;  -16.000
835.946; -100.900; -608.000; -378.000
836.197; -113.300; -599.000; -622.000
836.448; -107.775; -528.000; -395.000
836.699;  -72.075; -253.000; -341.000
836.950;   -3.100;   72.000;    7.000
837.201; -151.125;-1003.000; -987.000
837.452;  -63.450; -356.000; -170.000
837.703; -125.475; -791.000; -737.000
837.954;  -52.125; -205.000; -365.000
838.205;  -87.550;-1029.000;-1008.000
838.456;  159.375; -196.000; -282.000
838.707;   -0.450; -423.000; -519.000
838.958;   10.425; -634.000; -647.000
839.209;  280.725;   18.000;   40.000
839.460;   97.650; -439.000; -201.000
839.710;  163.875; -135.000; -297.000
839.961;  414.950;  730.000;  612.000
840.212;  347.000; -382.000; -497.000
840.462; 1180.625; -328.000; -277.000
840.713;18620.375; -571.000; -536.000
840.964; 6811.075;  -62.000; -143.000
841.214;  483.750; -384.000; -624.000
841.465;  552.825; -214.000; -141.000
841.715;  508.200; -417.000; -380.000
841.966;  689.625; -746.000; -685.000
842.216;10099.950; -330.000; -431.000
842.466;35101.625; -169.000; -313.000
842.717; 1736.425; -964.000; -952.000
842.967;  322.650; -635.000; -641.000
843.217;  267.050;   20.000;   28.000
843.468;   73.875; -104.000; -132.000
843.718;  -41.025; -718.000; -726.000
843.968; -101.525; -837.000; -765.000
844.218;   29.250; -315.000; -262.000
844.469;  -58.550; -577.000; -561.000
844.719; -120.125; -537.000; -682.000
844.969;  -97.375; -550.000; -580.000
845.219; -158.675; -814.000; -862.000
845.469;  -86.950; -392.000; -342.000
845.719; -147.725; -792.000; -884.000
845.969;  -29.275;  119.000;  174.000
846.219; -124.950; -738.000; -720.000
846.469;   17.050;  464.000;  432.000
846.718;  -64.950; -115.000;   31.000
846.968; -154.125; -827.000; -827.000
847.218;  -64.200; -224.000; -371.000
847.468;   -7.300; -586.000; -555.000
847.718; -146.100; -827.000; -798.000
847.967; -150.800; -826.000; -915.000
848.217;  -94.125; -449.000; -569.000
848.467;  -79.225; -405.000; -376.000
848.716; -130.400; -708.000; -725.000
848.966;    9.425; -372.000; -358.000
849.215;  -67.300; -428.000; -419.000
849.465; -110.950; -785.000; -615.000
849.714; -146.650;-1132.000;-1150.000
849.964;  -65.650; -551.000; -613.000
850.213;  -25.925; -393.000; -355.000
850.463;   65.300;  137.000;  340.000
850.712;   -0.450; -542.000; -567.000
850.961;   10.100; -739.000; -678.000
851.211;   93.675; -513.000; -504.000
851.460;  159.475; -635.000; -650.000
851.709;  564.025;  -25.000;   18.000
851.958;10899.900; -912.000; -750.000
852.208;12230.050; -859.000; -879.000
852.457;  444.150; -181.000;  -13.000
852.706;   50.275; -791.000; -823.000
852.955;   -4.075; -507.000; -528.000
853.204;  -69.700; -521.000; -461.000
853.453;  -90.925; -418.000; -458.000
853.702; -139.750; -660.000; -750.000
853.951; -113.100; -532.000; -520.000
854.200; -132.625; -613.000; -562.000
854.449; -124.425; -695.000; -661.000
854.698; -107.500; -340.000; -279.000
854.946;  -74.575; -181.000; -284.000
855.195; -159.400; -843.000; -868.000
855.444;  -99.925; -395.000; -420.000
855.693; -126.050; -345.000; -432.000
855.941; -117.625; -387.000; -516.000
856.190;  -65.525; -256.000; -382.000
856.439; -134.050; -652.000; -703.000
856.687;  -65.950;  -99.000;  -72.000
856.936; -118.450; -621.000; -323.000
857.184; -184.250;-1067.000;-1020.000
857.433; -109.250; -423.000; -512.000
857.681; -168.700; -989.000; -953.000
857.930;  -98.250; -282.000; -433.000
858.178; -190.750; -856.000; -929.000
858.427; -172.000; -802.000; -781.000
858.675; -127.525; -377.000; -544.000
858.923; -108.175; -527.000; -819.000
859.172; -194.150;-1094.000;-1070.000
859.420; -100.175; -339.000; -239.000
859.668; -145.625; -624.000; -628.000
859.916;  -32.950;  109.000;  115.000
860.164; -124.925; -699.000; -603.000
860.413;  306.625; -878.000; -696.000
860.661;  204.050; -709.000; -577.000
860.909;  -83.050; -339.000; -325.000
861.157;  -91.050; -277.000; -444.000
861.405; -131.450; -534.000; -670.000
861.653;   12.225;  310.000;  310.000
861.901;  174.475; -543.000; -613.000
862.149;  -22.700; -801.000; -824.000
862.396;  -76.600; -297.000; -187.000
862.644;  -99.925; -368.000; -347.000
862.892;  -28.425;   98.000;  138.000
863.140; -139.025; -549.000; -530.000
863.388; -177.675; -815.000; -759.000
863.635; -138.125; -642.000; -601.000
863.883;  -25.025;  231.000;  190.000
864.131; -104.800; -288.000; -357.000
864.378; -129.600; -675.000; -540.000
864.626; -118.675; -347.000; -415.000
864.873; -130.425; -556.000; -505.000
865.121; -160.575; -714.000; -799.000
865.368;  -51.075; -173.000;   75.000
865.616;  -44.925;  -33.000;  -40.000
865.863;  -96.275; -462.000; -506.000
866.111; -113.575; -795.000; -824.000
866.358;   23.050; -426.000; -420.000
866.605; 2302.000;  -64.000; -804.000
866.853; 2108.225; -621.000; -537.000
867.100;  -71.850; -728.000; -775.000
867.347; -117.850; -672.000; -611.000
867.594;  -99.725; -740.000; -714.000
867.841;   64.500;   97.000;   17.000
868.089; -161.475; -746.000; -698.000
868.336; -122.000; -477.000; -420.000
868.583; -160.150; -637.000; -741.000
868.830;  -58.675; -131.000; -170.000
869.077; -179.375; -859.000; -787.000
869.324; -129.575; -502.000; -458.000
869.571; -138.250; -398.000; -430.000
869.818; -125.650; -485.000; -439.000
870.065; -112.975; -439.000; -513.000
870.311; -131.500; -456.000; -542.000
870.558; -103.800; -332.000; -311.000
870.805;  -95.375; -320.000; -384.000
871.052; -122.925; -494.000; -369.000
871.298;  -64.525; -204.000; -131.000
871.545;  -70.675; -151.000; -185.000
871.792;  -97.150; -173.000; -222.000
872.038;  -73.150;   43.000; -126.000
872.285; -128.125; -496.000; -387.000
872.532; -106.225; -357.000; -387.000
872.778;    0.275;  556.000;  403.000
873.025; -110.025; -384.000; -359.000
873.271;   17.325;  501.000;  578.000
873.517;  -29.000; -133.000; -209.000
873.764;  -31.200; -193.000;  -80.000
874.010;  -92.625; -143.000; -230.000
874.257;  -43.925;  123.000;   90.000
874.503; -152.750; -579.000; -479.000
874.749;  -86.200;   31.000;  275.000
874.995;  -77.200;  -80.000;  -20.000
875.242; -133.450; -540.000; -478.000
875.488; -123.525; -414.000; -439.000
875.734;  -49.425; -106.000; -234.000
875.980;  213.125; -872.000;-1032.000
876.226;  369.225; -157.000; -255.000
876.472;  -15.100;  343.000;  237.000
876.718;  -47.900;  184.000;  158.000
876.964;  -49.225;   56.000;   55.000
877.210; -173.050; -547.000; -677.000
877.456; -146.150; -630.000; -557.000
877.702; -184.025; -821.000; -832.000
877.948; -125.700; -377.000; -497.000
878.193;    8.750;  361.000;  255.000
878.439;  -96.725; -487.000; -472.000
878.685; -106.475; -272.000; -343.000
878.931; -150.200; -618.000; -676.000
879.176;  -94.250; -201.000; -201.000
879.422; -202.025; -933.000; -820.000
879.668;   64.200;   10.000;   79.000
879.913;  131.875;   53.000;  137.000
880.159;  -71.600; -112.000;  -17.000
880.404;  -69.100; -152.000; -162.000
880.650;  -49.625;   91.000;  141.000
880.895; -180.550; -670.000; -710.000
881.141; -125.950; -454.000; -428.000
881.386; -161.750; -503.000; -658.000
881.631; -109.025; -311.000; -166.000
881.877;  -56.300;  112.000;  -13.000
882.122; -154.100; -684.000; -600.000
882.367;  -89.125; -136.000; -186.000
882.612;  -80.525;  -80.000; -176.000
882.858; -187.725; -877.000; -823.000
883.103; -122.475; -297.000; -267.000
883.348; -160.175; -759.000; -852.000
883.593; -156.975; -677.000; -602.000
883.838;  -59.425; -311.000;  -24.000
884.083;   21.950;  353.000;  288.000
884.328; -105.325; -564.000; -545.000
884.573;  -54.200; -196.000; -143.000
884.818;  214.925; -694.000; -531.000
885.063;  178.825; -348.000; -315.000
885.308; -109.950; -475.000; -398.000
885.553;  -25.500;  245.000;  325.000
885.797; -132.925; -545.000; -615.000
886.042;  -68.325;    8.000;   58.000
886.287; -110.475; -253.000; -211.000
886.532;  -44.625;   26.000;  204.000
886.776; -116.600; -407.000; -525.000
887.021; -142.550; -621.000; -574.000
887.265; -158.825; -685.000; -689.000
887.510; -147.125; -557.000; -496.000
887.755;  -90.425; -194.000; -164.000
887.999; -142.850; -552.000; -575.000
888.244;  -69.800;  -58.000;  161.000
888.488;  -18.375;  371.000;  393.000
888.732; -147.225; -368.000; -520.000
888.977; -140.825; -622.000; -567.000
889.221; -167.275; -683.000; -659.000
889.465; -147.400; -422.000; -566.000
889.710;  -83.525;  -56.000; -299.000
889.954;   -2.500;  579.000;  467.000
890.198; -161.200; -584.000; -707.000
890.442; -171.675; -716.000; -712.000
890.687; -169.725; -800.000; -753.000
890.931; -103.400; -273.000; -210.000
891.175; -144.425; -502.000; -500.000
891.419;  -84.900; -105.000; -110.000
891.663; -105.500; -239.000; -112.000
891.907; -178.925; -801.000; -545.000
892.151; -187.250; -920.000; -815.000
892.395; -124.750; -274.000; -387.000
892.638;  -28.175;  408.000;  291.000
892.882; -184.000; -780.000; -867.000
893.126;    9.000;  758.000;  558.000
893.370;  -98.000; -167.000; -168.000
893.614; -158.200; -714.000; -715.000
893.857; -114.375; -183.000; -197.000
894.101; -149.350; -527.000; -631.000
894.345;  -75.800;  300.000;  150.000
894.588;   20.275;  569.000;  380.000
894.832;  -96.850; -178.000;  -84.000
895.075;  -88.825;   15.000;  -92.000
895.319; -139.700; -552.000; -420.000
895.563; -139.625; -413.000; -353.000
895.806; -168.575; -628.000; -741.000
896.049;  -67.200; -576.000; -368.000
896.293;   92.025;  527.000;  405.000
896.536;  -90.925; -465.000; -468.000
896.779;  -77.150; -149.000;   -1.000
897.023; -160.175; -751.000; -714.000
897.266;  -37.125;  325.000;  269.000
897.509; -206.225; -900.000; -901.000
897.752;  -59.375;  149.000;  171.000
897.996; -196.475; -972.000; -864.000
898.239;  -56.575;  168.000;  102.000
898.482; -152.475; -431.000; -453.000
898.725;  -34.700;  101.000;   53.000
898.968; -155.175; -609.000; -744.000
899.211; -115.500; -513.000; -361.000
899.454; -134.375; -633.000; -539.000
899.697;  -80.125;   90.000;  -43.000
899.940; -181.525; -761.000; -757.000
900.182; -112.575; -335.000; -405.000
900.425; -113.500; -150.000; -298.000
900.668;  -28.150;  491.000;  350.000
900.911; -118.200; -292.000; -345.000
901.154;  -47.725;  141.000;   -3.000
901.396; -153.625; -407.000; -412.000
901.639; -151.425; -430.000; -496.000
901.882; -189.375; -790.000; -809.000
902.124;  -85.675;  -29.000; -143.000
902.367; -129.775; -315.000; -361.000
902.609; -132.475; -476.000; -453.000
902.852;  -98.750; -108.000; -260.000
903.094; -120.675; -458.000; -337.000
903.337;  -80.375;  -26.000;   53.000
903.579; -113.375; -228.000; -441.000
903.821; -161.225; -597.000; -744.000
904.064;  -69.900;   85.000;  127.000
904.306; -103.375; -126.000; -166.000
904.548; -108.450; -152.000; -366.000
904.790; -102.000; -195.000; -340.000
905.033; -140.175; -625.000; -577.000
905.275; -134.300; -513.000; -524.000
905.517;   30.075;  468.000;  256.000
905.759;  -97.500; -667.000; -761.000
906.001; -108.450; -322.000; -369.000
906.243;  -79.100; -162.000; -224.000
906.485;  106.250; -265.000; -207.000
906.727;   88.500; -499.000; -542.000
906.969;  -41.500;  -30.000; -135.000
907.211;  132.425; -316.000; -382.000
907.453;  277.575; -188.000; -237.000
907.695;   -7.775; -158.000; -385.000
907.936;   36.475;  818.000;  706.000
908.178;  -76.300;   92.000; -135.000
908.420;  -82.375; -111.000; -162.000
908.662; -148.975; -633.000; -682.000
908.903;  -94.250; -208.000; -123.000
909.145;  -76.975; -240.000; -305.000
909.386;    6.150;  315.000;  280.000
909.628;   25.075;  363.000;  397.000
909.870;  -12.750;   29.000;  264.000
910.111; -114.425; -809.000; -949.000
910.353;   13.225; -123.000; -161.000
910.594;   -4.775; -574.000; -606.000
910.835;   67.050; -265.000; -326.000
911.077;  137.200; -503.000; -604.000
911.318;  282.325; -505.000; -471.000
911.559;  442.450; -577.000; -880.000
911.801; 1380.725; -284.000; -280.000
912.042;10930.625;  -50.000; -159.000
912.283;26654.125;  404.000;  371.000
912.524; 3741.000; -396.000; -457.000
912.765;  447.150; -193.000;   79.000
913.006;  227.200; -307.000; -338.000
913.247;   40.825; -270.000; -290.000
913.488;  -20.750;  -43.000;   30.000
913.729;  -95.625; -373.000; -373.000
913.970;  -81.075;  -96.000; -292.000
914.211;  -73.975; -160.000; -198.000
914.452;  -81.625; -118.000;  -11.000
914.693;   16.300;  510.000;  592.000
914.934;    1.800;  510.000;  440.000
915.175;  -68.100;   53.000;  -95.000
915.415;  -97.150; -137.000;   27.000
915.656;  -78.475;  -28.000;  192.000
915.897; -101.900; -252.000;  -82.000
916.137;  -79.750;   74.000;   -9.000
916.378; -143.550; -573.000; -517.000
916.619;  -88.875; -159.000;  -63.000
916.859;  -46.325;  303.000;  330.000
917.100;  125.100; 1655.000; 1070.000
917.340;   26.925;  930.000;  728.000
917.581;   39.600;  965.000;  789.000
917.821;  -44.650; -171.000;  143.000
918.061;    0.950; -199.000;  -72.000
918.302;  -78.450; -152.000; -211.000
918.542;  -38.950;  -22.000;    3.000
918.782;   24.575;  369.000;  377.000
919.023;  132.300;  360.000;  427.000
919.263; 1374.025; 8131.000;  202.000
919.503; 1090.450; -137.000;  -54.000
919.743;  624.975;  390.000;  266.000
919.983;  261.000; -134.000;  -26.000
920.223;   68.300;  135.000;   14.000
920.463;  144.450;  631.000;  554.000
920.703;  117.225;   84.000;   39.000
920.943;  167.750; -110.000;   90.000
921.183;  209.025; -414.000; -405.000
921.423;  499.225;  307.000;  546.000
921.663;  719.600; -174.000; -257.000
921.903; 1602.500;  237.000;  173.000
922.143; 9015.450;  372.000;  389.000
922.383;33618.075;  158.000;  115.000
922.622;10310.875; -120.000;  -15.000
922.862; 1133.000;  796.000;  785.000
923.102;  404.925;  -51.000;   33.000
923.341;  174.150;   59.000;   74.000
923.581;   69.525;  450.000;  360.000
923.821;   -1.075;  301.000;  398.000
924.060;    1.250;  351.000;  193.000
924.300;  -60.525;  -16.000; -128.000
924.539;  -21.100;  584.000;  473.000
924.779;   10.550;  812.000;  597.000
925.018;  -57.650;  247.000;  353.000
925.257;  -10.900;  595.000;  666.000
925.497;  -49.925;  447.000;  412.000
925.736;  -75.650;  -35.000;  102.000
925.975;   11.700;  687.000;  669.000
926.214;   20.575;  907.000;  850.000
926.454;   15.250;  706.000;  757.000
926.693;  -40.425;  419.000;  543.000
926.932;   27.075; 1021.000;  825.000
927.171;   70.300; 1107.000; 1044.000
927.410;   61.500; 1144.000;  967.000
927.649;   10.050;  924.000;  742.000
927.888;   -8.900;  590.000;  564.000
928.127;  -27.375;  680.000;  678.000
928.366;   27.075;  842.000;  826.000
928.605;   34.750;  831.000;  737.000
928.844;  238.400; 1451.000; 1393.000
929.083;  603.275;  770.000;  613.000
929.321;  310.325; 1335.000; 1359.000
929.560;   77.475; 1158.000; 1122.000
929.799;  -32.400;  574.000;  475.000
930.038;   76.025; 1025.000; 1394.000
930.276;  -53.450;  334.000;  397.000
930.515;  -12.275;  827.000;  681.000
930.753;  -40.250;  614.000;  589.000
930.992;  -27.025;  664.000;  717.000
931.230;  -20.775;  847.000;  847.000
931.469;  185.375; 2162.000;  892.000
931.707;   64.825;  840.000;  751.000
931.946;   60.700; 1278.000; 1344.000
932.184;   57.275; 1437.000; 1175.000
932.423;   31.525; 1265.000;  963.000
932.661;   96.050; 1296.000; 1428.000
932.899;   23.550;  987.000;  821.000
933.137;    1.975;  754.000;  564.000
933.376;  133.950; 1664.000; 1335.000
933.614;  146.450; 1759.000; 1196.000
933.852;   55.775; 1357.000; 1171.000
934.090;  131.000; 1722.000; 1747.000
934.328;   89.375; 1252.000; 1457.000
934.566;   70.200; 1431.000; 1110.000
934.804;  124.100; 1263.000; 1309.000
935.042;  452.450; 1861.000; 1850.000
935.280; 1789.775; 2088.000; 2063.000
935.518; 1598.600; 2113.000; 2007.000
935.756;  334.250; 2481.000; 2316.000
935.994;  149.950; 1808.000; 1751.000
936.231;  357.400; 2890.000; 2950.000
936.469;  173.125; 2367.000; 2378.000
936.707;  160.600; 2220.000; 2167.000
936.945;  214.925; 2825.000; 2882.000
937.182;  206.500; 2679.000; 2741.000
937.420;  313.725; 3602.000; 3031.000
937.657;  409.325; 3365.000; 3478.000
937.895;  330.475; 3331.000; 3488.000
938.133;  323.500; 3540.000; 3528.000
938.370;  346.575; 3896.000; 4191.000
938.607;  383.925; 4488.000; 4205.000
938.845;  535.775; 5587.000; 5549.000
939.082;  483.375; 5387.000; 5177.000
939.320;  532.975; 5799.000; 5728.000
939.557;  653.600; 6549.000; 6491.000
939.794;  727.650; 7285.000; 7097.000
940.031;  903.175; 8421.000; 8368.000
940.269; 1114.300; 9552.000; 9107.000
940.506; 1111.500;10901.000;10507.000

