
Integration time [ms]: 100.000
Averaging Nr. [scans]: 40
Smoothing Nr. [pixels]: 0
Data measured with spectrometer [name]: 2101013U2
Wave   ;Sample   ;Dark     ;Reference
[nm]   ;[counts] ;[counts] ;[counts] 

394.013;   72.703; -450.257; -315.536
394.305;  278.751; -461.258; -419.536
394.596; 1065.275; -676.269; -527.514
394.887; 2519.641; -796.268; -654.518
395.178;  988.321;  145.736;   11.476
395.470;   98.432; -210.263; -356.526
395.761;  241.631;  305.734;  394.479
396.052;  426.926; -545.284; -306.489
396.343;  425.345; -557.276; -454.503
396.634;  167.039; -200.279; -290.497
396.926;  182.489; -618.268; -565.517
397.217;  149.625;   11.725;  -17.504
397.508;   71.940; -366.273; -154.507
397.799;   84.139; -555.279; -571.497
398.090;   23.434; -973.280; -902.495
398.381;  152.328;   11.708;  -11.473
398.672;   21.754; -585.292; -742.473
398.963;   82.395; -348.279; -373.498
399.254;  125.188;   54.709; -209.475
399.545;  -17.022;-1017.266; -883.520
399.836;  100.059; -407.277; -343.501
400.127;   69.579; -205.295; -209.468
400.418;   73.910; -423.274; -392.506
400.709;  110.771; -359.281; -333.493
401.000;   65.016; -268.291; -309.476
401.290;  117.667;  225.698;  115.545
401.581;   82.659; -166.286; -228.485
401.872;   34.977; -542.298; -486.462
402.163;   82.122; -313.296; -252.467
402.454;  119.613; -123.291; -163.475
402.744;  112.113; -844.297; -813.465
403.035;  559.894; -226.293;  -86.471
403.326;  733.406; -366.292; -384.474
403.617;  439.246;  204.701;  165.539
403.907;  263.907; -593.283; -679.490
404.198; 2240.546; -545.307; -599.446
404.489; 5982.662; -618.283; -588.491
404.779; 2120.645; -618.302; -660.456
405.070;  239.949;  -67.304; -174.451
405.360;  329.221; -259.293; -238.472
405.651;  380.556;  125.699;   98.542
405.942;  204.830;  209.714;  127.516
406.232;  364.144; -432.285; -413.487
406.523;  597.839;  641.706;  758.530
406.813;  138.082; -579.286; -644.484
407.104;  430.276;  261.708;  144.527
407.394;  265.672; -604.299; -591.462
407.685;  196.593;  336.715;  222.513
407.975;   85.035; -400.283; -382.490
408.265;  144.227; -134.289; -190.478
408.556;   75.685; -472.291; -459.475
408.846;  171.015;  474.706;  429.530
409.137;   90.986;   -1.288; -216.480
409.427;   61.094; -193.285; -271.487
409.717;   39.943; -776.273; -692.508
410.007;  166.787;    4.715; -170.486
410.298;  105.082; -360.295; -342.469
410.588;   76.866; -495.285; -510.486
410.878;   53.997; -792.287; -873.482
411.168;  138.829; -481.298; -478.463
411.459;  112.480; -295.283; -242.489
411.749;   77.934; -609.292; -507.474
412.039;   70.159; -755.289; -386.480
412.329;  231.777;   40.722;  132.501
412.619;  230.682;  -62.286; -148.485
412.909;  402.530;  639.711;  594.521
413.199;  391.284; -130.280; -251.495
413.490;  451.146;  521.710;  352.523
413.780;  158.463;-1013.279; -913.496
414.070;  345.871;  -46.276;  235.497
414.360;  404.124; -729.278; -666.498
414.650;  442.143; -726.288; -688.482
414.940;  519.687; -538.280; -441.496
415.230;  924.640;   50.712;   74.519
415.520; 5793.424;  155.730;   66.486
415.809;22681.121; -305.281; -125.493
416.099;17456.512; -388.277; -229.501
416.389; 4774.658;  435.726;  236.494
416.679; 2769.361;   91.738;   85.473
416.969;  504.751; -527.287; -503.483
417.259;  470.565;  341.721;  171.503
417.549;  703.845;  522.718;  318.508
417.838; 1563.191; -205.268; -147.518
418.128; 5069.826;  650.710;  492.522
418.418; 4233.800; -491.272; -579.509
418.708; 2897.533;    9.726;  -48.506
418.997;10663.129; -474.275; -480.505
419.287;11004.415; -733.273; -790.507
419.577;10232.729; -160.283; -123.489
419.866;34320.210; -588.277; -498.501
420.156;35636.720; -242.270;  -55.513
420.446; 6535.928; -112.263;  -26.526
420.735;  997.989; -376.271; -446.512
421.025;  889.998; 1830.722;  315.502
421.314;  832.312; -203.271; -226.512
421.604; 1935.434;   89.732;  233.484
421.893; 1137.434; -705.271; -602.511
422.183;  248.179; -487.263; -461.526
422.472;  404.235;  -36.271; -107.511
422.762;  494.483; -416.266; -379.521
423.051;  287.247; -916.276; -916.503
423.341;  356.216; -491.273; -439.507
423.630;  458.464; -121.265;   15.477
423.919;  427.478;   58.725;   49.495
424.209;  391.259;  -31.263;   56.473
424.498;  509.288;   68.732;  161.483
424.787; 1076.919; -535.267; -601.518
425.077; 3323.263;   34.735;   29.478
425.366; 5126.815; -734.262; -744.528
425.655; 9449.517;  639.727;  259.493
425.945;18806.842; -313.247; -268.554
426.234;10478.662;  117.741;  300.467
426.523; 4819.642;  -86.259; -350.534
426.812; 6523.029;  107.734;  159.480
427.101; 9567.205; -127.269; -323.515
427.390;12427.974;  -55.270;  -86.514
427.680; 3282.236; -624.257; -411.538
427.969;  553.022; -330.255; -301.540
428.258;  350.353; -385.257; -477.536
428.547;  606.004;  449.728;  397.490
428.836; 1582.288; -421.253; -398.543
429.125; 2275.369; -199.259;  -72.534
429.414;  915.060; -330.251; -294.548
429.703; 2964.685; -231.251; -213.548
429.992; 8688.664; -938.250; -828.549
430.281; 5697.247; -397.264; -331.524
430.570;  621.576;  -21.252;   32.454
430.859;  685.017;  279.741;  352.466
431.148;  493.038;  636.752;  631.446
431.437;  314.900;  391.748;  367.454
431.725;  158.655; -544.257; -481.536
432.014;  130.820; -845.253; -756.545
432.303;  430.312; -149.239; -105.569
432.592;  726.703; -460.263; -178.525
432.881; 1048.014; -601.248; -437.554
433.169; 5655.298; -343.255;  -61.540
433.458;11550.745;  445.765;  540.424
433.747; 4925.220; -397.261; -289.529
434.036; 1029.938; -275.242; -280.564
434.324; 2059.251; -395.249; -379.551
434.613; 3449.632;   40.757;  159.437
434.902; 1239.977;  333.760;  439.433
435.190;  808.236;   75.761;  295.431
435.479;  448.964;  -52.245;   83.441
435.767;  155.222; -411.244; -427.561
436.056;  266.284; -340.242; -294.563
436.345;  387.305; -372.240; -223.568
436.633;  402.696;   60.750;  383.450
436.922;  349.132;  208.760;  414.432
437.210;  863.635; -194.236;    1.426
437.499; 2883.868; -583.235; -432.576
437.787; 3118.585; -339.236;  -10.574
438.075;  741.816;   56.761;  162.430
438.364; 1008.369;  -44.238;  250.429
438.652;  614.247; -286.226; -138.592
438.941;  183.262;    3.770;  269.415
439.229;   20.923; -665.252; -466.545
439.517;   61.002; -160.234;  -85.577
439.806;   13.462; -501.225; -290.595
440.094;  215.759;  377.766;  650.421
440.382;  271.413; -653.233; -302.580
440.670;  309.543; -361.235; -285.576
440.959;   37.730; -347.223; -170.599
441.247;  100.948; -151.229; -109.587
441.535;  135.675; -266.235;   31.423
441.823;   81.082; -497.234; -305.578
442.111;  233.052;  173.771;  327.412
442.400;  717.113; -628.245; -335.559
442.688; 1955.934; -111.234; -620.579
442.976; 1461.241; -786.213; -450.617
443.264;  152.194; -324.224; -364.597
443.552;  133.998; -258.226;   51.408
443.840;  182.824;  602.765;  876.423
444.128;  148.562;  265.767;  269.420
444.416;   13.180; -694.228; -312.588
444.704;   46.134; -465.219;  -92.605
444.992;  106.176;   -0.226;  240.407
445.280;   79.137; -517.230;  -94.585
445.568;   87.844; -694.212; -396.618
445.856;  469.018; -174.221;  357.398
446.143; 1077.105;  -54.220;   -7.604
446.431;  849.558;  -25.228;  625.411
446.719;  283.328;  489.783;  675.391
447.007;  198.932;  481.769;  705.416
447.295;  207.752;  597.777;  871.402
447.583;  109.771; -464.229;  -34.587
447.870;  200.765; -434.221; -202.601
448.158;  530.711; -104.230;  129.415
448.446;  418.556; -800.219; -338.604
448.733;  205.245;   13.776;  269.403
449.021;  299.769;   60.788;  341.382
449.309;  243.334; -296.210;  208.379
449.596;  245.324;  128.783;   59.392
449.884;  174.534; -571.222; -325.600
450.172;  156.613; -756.227; -406.590
450.459;  422.549;  645.786;  780.387
450.747; 2102.223; -411.218; -147.608
451.034; 6764.259;  493.772;  889.411
451.322; 5579.902; -413.214; -170.614
451.609;  470.697;  292.777;  508.403
451.897;  542.496; -550.203; -183.634
452.184; 1648.427; -622.223; -400.598
452.472; 1568.880;   97.792;  269.375
452.759;  368.207;  512.781;  864.395
453.047;  148.542; -407.212; -125.617
453.334;  114.239; -732.219; -216.606
453.621;  108.655; -438.214; -161.615
453.909;  154.038;   13.796;  384.368
454.196;  137.783; -299.199; -123.641
454.483;  241.634;  317.798;  540.364
454.771;  157.458; -215.208;  196.374
455.058;   54.011; -316.207;  102.374
455.345;  105.887;   71.807;  344.347
455.632;   87.014; -128.207;  235.373
455.919;   44.630;  -82.196;  182.354
456.207;  -49.263; -774.198; -450.642
456.494;    4.745; -475.200;  -66.639
456.781;   21.204; -399.202; -198.635
457.068;   82.321; -253.206;  -29.628
457.355;   14.422; -698.206; -401.629
457.642;   19.027; -552.205; -290.630
457.929;   10.953; -778.194; -417.651
458.216;   73.592; -575.212; -354.617
458.503;  211.533; -173.193;  -19.652
458.790;  215.956; -864.208; -630.625
459.077;  270.209;  -77.202;  110.364
459.364;  746.746; -350.195; -210.649
459.651; 1555.969;  -46.206;  220.372
459.938;  734.496; -864.209; -665.623
460.225;  188.037;  132.799;  276.363
460.512;  -20.523; -836.197; -688.645
460.799;  142.646;  -32.218;  320.392
461.086;  104.775; -370.200; -251.640
461.372;   68.937; -509.198; -279.642
461.659;  152.531; -165.196;  108.354
461.946;  102.481; -445.193;  -54.651
462.233;  261.698;  842.800;  888.361
462.519;  360.870; -814.201; -464.639
462.806;  970.327; -768.197; -497.645
463.093;  832.277; -445.191;  -66.656
463.380;  -15.258; -920.186; -824.664
463.666;   80.679; -259.197;  -18.646
463.953;  114.616; -406.195; -243.648
464.239;  189.341; -173.195;  -77.648
464.526;  429.452;  413.806;  743.350
464.813;  416.463; -565.190; -304.658
465.099;  396.507;  606.807;  607.348
465.386;  394.711;  903.807;  921.348
465.672;   65.428; -694.197; -522.645
465.959;   52.631; -598.188; -520.662
466.245;   43.586; -468.193; -359.652
466.532;  131.464; -109.195;   63.352
466.818;  100.167; -357.186; -216.664
467.104;   20.206; -488.182; -415.672
467.391;   -9.760; -628.189; -459.658
467.677;   53.970; -289.186;    9.335
467.964;   27.071; -682.189; -471.660
468.250;   83.998; -331.186; -160.665
468.536;   91.741;   90.811;  180.341
468.822;  -12.915; -821.184; -574.668
469.109;  151.236;  351.827;  471.311
469.395;  207.346;  729.808;  787.346
469.681;  199.969;   46.811;  156.341
469.967; 1146.874; -699.188; -382.660
470.254; 2479.706; -494.188; -306.662
470.540; 1570.530; -601.196; -476.646
470.826;  220.542; -488.181; -397.675
471.112;  291.763;  288.816;  113.331
471.398;   90.068; -253.183;  -58.670
471.684;   55.520; -626.177; -447.680
471.970;   11.471; -918.180; -981.675
472.256;   35.420; -521.192; -441.654
472.542;   31.997; -499.171; -434.691
472.828;   42.802; -743.182; -607.672
473.114;   53.239; -380.166; -283.700
473.400;   36.711; -504.175; -293.684
473.686;   46.046; -452.166; -400.701
473.972;   78.751; -230.174; -131.687
474.258;  -47.764; -925.173; -843.689
474.544;  176.387; -183.178;   -2.679
474.830;  273.288;  -65.175;   45.316
475.116;  411.139; -123.190; -196.658
475.401;  588.873; -558.180; -467.676
475.687;  203.272; -725.180; -718.676
475.973;   23.710; -673.181; -770.673
476.259;  274.865;  736.825;  764.315
476.544;  350.103; -539.176; -437.682
476.830;  718.493; -398.172; -322.690
477.116;  613.177; -430.177; -336.682
477.401;  141.573;  346.820;  358.324
477.687;   -1.038; -289.175; -405.684
477.973;   47.389;   21.819;   28.326
478.258;   -3.884; -448.163; -348.706
478.544;   65.928;   21.815;   61.334
478.829;  -48.098; -818.171; -738.692
479.115;  -27.433; -749.172; -651.690
479.401;   -6.404; -444.174; -449.686
479.686;   20.597; -253.180;  -74.676
479.972;  -31.383; -886.178; -776.680
480.257;   44.091; -258.166;  -65.700
480.542;    0.731; -614.170; -469.693
480.828;  242.285; 1288.824; 1392.317
481.113;  -24.017; -464.176; -426.683
481.399;    1.914; -236.161; -202.711
481.684;  -44.585; -620.166; -462.700
481.969;   24.752; -158.159;  -73.713
482.255;   -4.559; -439.169; -285.695
482.540;    6.967; -569.178; -441.680
482.825;   -2.213; -395.187; -404.663
483.110;   81.994;  -85.169; -105.696
483.396;  147.973; -840.157; -652.718
483.681;  442.101;  543.826;  730.313
483.966;  126.971; -696.160; -700.712
484.251;   26.150; -404.174; -310.687
484.536;   11.426; -356.165; -378.703
484.822;   28.703; -205.173; -218.687
485.107;  -29.289; -599.152; -502.726
485.392;  139.206;  662.836;  541.296
485.677;   65.229;  354.832;  163.302
485.962;  117.071;  160.843;  270.283
486.247;   99.498;  -14.162;   -8.707
486.532;   46.642; -178.166; -325.701
486.817;  162.358;  381.839;  431.291
487.102;  130.269; -453.154; -514.722
487.387;  582.025; -637.156; -652.718
487.672; 1004.136; -154.164;  -38.705
487.957;  595.865; -394.160; -286.711
488.241;  193.327; -290.150; -314.729
488.526;  627.337; -280.152; -148.726
488.811; 1041.719; -881.177; -818.680
489.096;  784.047; -666.154; -702.723
489.381;  457.784;    3.847;  162.275
489.666;  344.039; -428.161; -510.710
489.950;  162.225;  558.846;  627.277
490.235;  -27.902; -480.151; -458.728
490.520;  -28.462; -756.161; -723.710
490.804;  -46.698; -827.156; -736.719
491.089;    9.418; -469.149; -299.732
491.374;   42.860; -132.164;  -75.704
491.658;   13.354; -817.147; -717.735
491.943;  191.367; -657.152; -609.727
492.227;  292.415; -178.155;  -38.721
492.512;   74.671; -294.157; -341.717
492.797;  -48.788; -713.149; -716.731
493.081;  -44.543; -588.147; -598.735
493.366;  -27.736; -751.161; -635.711
493.650;  206.884;  831.859;  917.254
493.935;   44.729; -648.147; -447.734
494.219;  -43.178; -778.142; -687.743
494.503;  -38.443; -585.150; -487.730
494.788;   49.587;   46.842;   74.285
495.072;  115.304;  184.850;  434.271
495.356;  169.571; -463.148; -343.733
495.641;  489.088; -812.146; -736.736
495.925;  476.332; -976.156; -903.719
496.209;   71.842; -599.149; -451.732
496.494;  -35.278; -763.142; -544.744
496.778;   22.769; -364.154; -360.722
497.062;  -62.093; -819.156; -627.719
497.346;  -38.883; -869.160; -640.711
497.631;  141.625;  580.852;  560.266
497.915;   88.424;  -64.145;  175.261
498.199;   72.423; -341.157; -277.718
498.483;   52.711; -562.152; -508.725
498.767;  174.205;  301.850;  300.271
499.051;  178.390; -126.149; -100.732
499.335;   22.338; -693.149; -739.731
499.619;  -23.291; -381.129; -423.767
499.903;   30.864; -272.155;  -65.721
500.187;   44.601; -588.153; -316.724
500.471;   41.991; -796.152; -595.727
500.755;  145.163;   62.839;  -96.710
501.039;   44.664; -270.155; -357.721
501.323;  101.836;  -21.141;  264.254
501.607;   58.741; -447.163; -503.706
501.891;   21.050; -607.156; -512.718
502.174;  -23.465; -726.144; -585.741
502.458;   84.070;   89.849;  370.273
502.742;   31.109; -180.138; -191.751
503.026;   95.353; -412.147; -254.734
503.310;  141.901; -437.159; -375.713
503.593;  114.030; -464.147; -325.735
503.877;  121.199; -232.133; -156.760
504.161;  213.154;    2.847;  -50.724
504.444;  139.515; -841.158; -710.716
504.728;  405.009; -487.164; -522.704
505.012;  645.377; -257.150;  -76.729
505.295;  487.114; -417.161; -212.711
505.579;  466.807; -256.156; -496.719
505.862;  663.820; -555.145; -333.738
506.146;  624.704; -681.159; -758.714
506.429;  370.079;  568.841;  461.286
506.713;   51.074; -732.151; -667.728
506.996;  296.219;   90.846;  295.278
507.280;  305.255; -633.165; -474.703
507.563;  226.612; -469.155; -261.721
507.847;   71.677; -423.153; -112.724
508.130;   61.115; -665.161; -456.711
508.413;   95.936; -758.167; -577.700
508.697;  227.387; -151.167;   12.300
508.980;  125.029; -422.153; -312.724
509.263;   -1.991; -466.155; -450.720
509.547;   31.301; -124.150;   82.271
509.830;   53.367; -172.160;  140.289
510.113;   90.481;  128.844;  298.281
510.396;   42.184; -530.152; -300.725
510.680;  261.821; -818.145; -812.738
510.963;  902.648;  184.846;  180.277
511.246;  810.809; -493.150; -357.730
511.529;  301.226; -482.145;  -83.739
511.812;  329.070; -250.134;   10.241
512.095;  211.846; -740.151; -396.728
512.378;   74.709; -317.147; -245.736
512.661;   31.067; -703.137; -623.753
512.944;   21.624; -750.142; -637.744
513.227;   65.689; -170.137; -171.752
513.510;   30.735; -479.144; -671.741
513.793;   35.465; -485.140; -435.747
514.076;  148.854;  -43.127;  -39.771
514.359;  107.093; -294.149; -135.732
514.642;   80.901; -442.142; -567.744
514.925;  673.164;  581.860;  561.253
515.208;  862.742; -498.134; -443.758
515.491;  580.681; -276.133; -182.761
515.773;  321.688; -410.143; -337.742
516.056; 1810.923;  249.864;  409.246
516.339; 2506.502; -754.136; -652.755
516.622; 2069.757; -518.150; -488.730
516.904; 1665.345;  882.857;  975.257
517.187;  791.213; -730.138; -523.752
517.470;  427.719; -568.143; -510.743
517.752;  384.030; -624.136; -470.756
518.035;  296.150; -708.139; -725.749
518.318;  300.977; -799.136; -744.755
518.600; 1987.959; -300.132; -325.762
518.883; 2849.851;  310.858;   88.256
519.165; 1390.756; -585.138; -426.751
519.448;  436.209;  -61.132;  -19.762
519.730;  218.936; -573.126; -415.773
520.013;  357.627;  588.867;  664.240
520.295; 1134.622;  -94.134;  -15.759
520.578; 2597.621; -335.131; -305.764
520.860; 2872.559; -254.132;   56.238
521.143; 1461.457; -763.135; -584.756
521.425;  508.449; -251.125; -279.775
521.707;  651.154; -622.127; -380.771
521.990; 1566.505; -199.127;  167.229
522.272; 1765.892; -116.140;   -4.748
522.554;  903.364; -237.143; -157.742
522.836;  467.220;  -24.134;   99.241
523.119;  275.502; -496.148; -189.734
523.401;  179.353; -448.130; -314.766
523.683;   87.367; -865.137; -693.753
523.965;  256.336;  408.862;  260.248
524.247;  248.095;   54.878;  170.220
524.529;  195.297; -451.134; -367.759
524.812;  339.780;   -3.130;  191.234
525.094;  728.085; -773.138; -631.751
525.376; 1190.633; -143.124;   78.223
525.658;  709.774; -441.136; -339.754
525.940;   31.418; -805.131; -671.764
526.222;   41.953; -188.136;  -88.755
526.504;  158.141; -190.131;   32.237
526.786;  263.375; -960.133; -647.760
527.068;  434.513; -124.123;  -67.778
527.349;  211.271; -865.137; -774.754
527.631;  162.683; -137.132;   22.238
527.913;  121.954; -664.127; -450.771
528.195;  133.242; -761.125; -639.774
528.477;  224.967;  -93.134;  -30.758
528.759;  113.280; -648.130; -522.766
529.040;   41.562; -569.123; -293.778
529.322;   61.795; -235.125;  -10.774
529.604;  171.557;  -47.130;   93.233
529.886;  170.186; -546.126; -302.773
530.167;  160.874;  232.870;  192.235
530.449;   56.308;    1.853;   63.265
530.731;   12.094; -572.122; -459.779
531.012;   40.139; -513.120; -216.784
531.294;   57.828; -118.116;  -43.792
531.575;  140.424;  290.875;  538.225
531.857;   31.287; -548.135; -266.757
532.138;   95.609; -113.141;   40.254
532.420;  204.508;  294.865;  403.244
532.701;  286.027; -722.133; -751.760
532.983;  434.030;  232.867;  182.239
533.264;  161.759; -243.126;  175.228
533.546;  -16.347; -491.136; -508.755
533.827;   59.498;  173.867;   -1.759
534.109;   74.962; -352.135;  -80.757
534.390;  131.938; -725.132; -582.762
534.671;  281.233; -270.135;  -82.756
534.953;  139.090; -751.123; -611.779
535.234;   31.138; -426.117; -255.789
535.515;  -72.577; -891.119; -735.785
535.796;  -22.325; -431.128; -193.770
536.078; -101.917;-1050.124; -904.777
536.359;   13.416;  -22.123;    3.221
536.640;   -6.631; -480.125; -197.774
536.921;  159.562;  225.871;  143.232
537.202;  330.182;  -87.138;  -16.751
537.483;  416.921;  251.869;  377.236
537.764;  155.874;   17.870;   98.235
538.045;  -33.934; -543.134; -371.758
538.326;  -30.611; -596.129; -447.768
538.607;    7.330; -686.127; -476.771
538.888;  155.431;   98.879;    5.218
539.169;  181.150; -704.122; -535.781
539.450;  338.061;  236.871;   16.233
539.731;  229.910; -361.121; -182.783
540.012;  132.789;  199.880;  412.216
540.293;   85.602;   82.876;  158.224
540.574;   30.423; -895.113; -717.796
540.855;  468.208;  435.879;  377.218
541.136;  533.873;   47.878;  139.220
541.416;  275.756; -161.130; -220.766
541.697;  187.217; -274.131; -170.763
541.978;  894.410; -270.135; -315.757
542.259; 1150.205; -211.127; -236.771
542.539;  551.972; -191.116; -186.790
542.820;  189.399;  461.875;  480.225
543.101;  135.773;  -52.145;  -77.738
543.381;   42.455; -638.127; -591.771
543.662;  250.902;  159.873; -254.771
543.942;  509.176; -751.127; -830.770
544.223;  922.299;  193.878;  161.219
544.504;  587.332; -275.124; -182.777
544.784;  511.486; -592.126; -408.773
545.065; 1485.100;  104.884; -254.791
545.345; 1728.073;  227.881;   14.215
545.626; 1118.122;  -14.113; -108.796
545.906;  784.499;   77.869;   98.235
546.186;  299.490;   92.874;  -95.773
546.467;  168.635;   99.877;  -95.778
546.747;  292.947;  264.884;  327.210
547.027;  330.456;   91.876;  111.223
547.308;  285.300; -376.127; -530.770
547.588;  366.665;  299.871;  371.232
547.868;  175.525;  458.870;  588.235
548.149;  180.458;  609.885;  593.207
548.429;  116.778; -347.127; -299.771
548.709;  147.089; -645.120; -461.784
548.989;  413.282;   84.882;   88.213
549.269; 1810.982;   10.868;  139.239
549.550; 4113.414;  215.877;  117.222
549.830; 3699.565; -758.111; -556.799
550.110;  752.347; -468.110; -320.801
550.390;  731.344; -128.122;  -56.779
550.670;  990.868; -868.114; -783.795
550.950;  718.858; -509.121; -471.782
551.230;  174.804;  549.879;  460.218
551.510;   -4.044; -381.121; -326.782
551.790;   33.180; -173.109; -127.803
552.070;  240.410;  940.877; 1181.223
552.350;  335.352; -492.119; -377.786
552.630;  515.352;   -2.121;   77.219
552.909;  298.076;  181.884;   73.209
553.189;  205.564;  -49.132;   33.237
553.469;  156.926; -703.119; -514.786
553.749;  154.781; -469.127; -357.772
554.029;  139.817;   33.883;  -24.790
554.308;  118.512; -154.115;  -37.794
554.588;   32.749; -196.128; -204.770
554.868;   68.183; -366.121;  -47.782
555.147;  135.509; -114.115;  -46.793
555.427;  499.453; -260.116; -250.792
555.707; 3309.957; -284.115; -200.793
555.986; 4016.318; -719.111; -538.800
556.266; 2119.820;   23.884;   72.210
556.546;  106.532; -888.121; -675.782
556.825;  198.641; -657.114; -556.794
557.105; 1530.147; -125.128;   17.230
557.384; 1783.800;  122.884;  187.209
557.664;  671.503; -717.116; -508.792
557.943;   83.633; -557.121; -411.782
558.222;  148.910; -345.118; -344.788
558.502;  241.935; -116.115;  -76.793
558.781;  448.581;  194.885;  499.208
559.061;  338.335; -232.118; -227.788
559.340;  260.515;  302.883;  353.211
559.619;  581.145;   93.884;  148.210
559.899;  853.642; -239.117; -266.789
560.178;  790.935; -778.115; -593.793
560.457; 2668.143; -623.117; -562.790
560.736; 3706.670; -472.111; -482.800
561.015; 2464.494; -500.128; -502.769
561.295;  340.475;  180.893;  215.193
561.574;  347.558;  119.885;  116.207
561.853;  469.534;  274.891;  303.197
562.132;  440.737;  -45.114;  182.206
562.411;  367.927;  396.879;  553.219
562.690;   99.431; -592.115; -458.792
562.969;  131.529;  472.888;  630.203
563.248;  487.775; 2966.878; 2487.219
563.527;  213.469; -290.111; -408.800
563.806;  320.078; -650.127; -521.771
564.085;  350.915; -297.105; -206.810
564.364;  182.820; -594.117; -405.790
564.643;  414.478; -276.121; -223.781
564.922; 1594.703;  221.890;  397.198
565.201; 1583.632; -640.109; -700.803
565.479;  689.355; -297.115; -219.792
565.758;  266.922; -810.128; -712.770
566.037;  408.158; -155.109; -100.803
566.316;  200.950; -286.116;  -28.791
566.595;   54.907;  -17.115;  -12.793
566.873;   89.321; -166.111;  -79.801
567.152;  -61.546; -490.113; -590.797
567.431;    1.546; -113.116;    6.210
567.709;    8.000; -344.107; -212.807
567.988;  199.591; -810.114; -769.794
568.266;  466.682; -160.115;  -68.793
568.545;  332.211; -644.100; -514.819
568.824;  503.154;  160.885;  356.208
569.102;  457.040; -351.114; -235.794
569.381;  172.953; -492.116; -407.792
569.659;  -47.825; -553.113; -553.796
569.938;   14.523; -743.122; -465.780
570.216;   99.861; -225.109; -225.804
570.494;  -39.081; -632.114; -572.795
570.773;   43.006;  202.879;  114.218
571.051;    4.813; -373.123; -357.778
571.330;   57.873; -221.113; -174.796
571.608;   46.778; -181.098; -173.823
571.886;  -78.487; -671.111; -581.799
572.164;  -52.517; -739.121; -621.782
572.443;  -48.257; -562.105; -512.811
572.721;  -21.882; -399.117; -289.790
572.999;  -27.538; -280.117; -168.788
573.277;   94.612;  379.894;  620.191
573.555;  246.339;   94.894;   37.190
573.834; 1134.237;  -86.117; -114.788
574.112; 1324.577;  880.893;  811.193
574.390;  395.120; -143.111;  -96.801
574.668;   -0.370;  -91.112;  -61.797
574.946;   -5.936; -165.106; -187.810
575.224;    7.207;   71.891;  -16.803
575.502;  -13.527; -200.116; -204.791
575.780;  -85.019; -767.112; -829.798
576.058;  223.694; 1589.889; 1004.200
576.336;  -10.100; -210.110; -129.801
576.614;  -58.069; -511.112; -340.798
576.891;   15.187; -711.115; -823.794
577.169;  411.443; -158.108; -285.805
577.447;  507.427;  169.893;  202.193
577.725;  244.811;  629.888;  854.201
578.003;    3.784;  -71.112; -371.798
578.280;   91.077; -208.104; -242.812
578.558;   65.185; -450.115; -422.793
578.836;  120.869; -210.114; -145.795
579.114;   62.730; -630.112; -670.797
579.391;   85.713;   -6.117;  -18.789
579.669;  -84.963; -595.114; -704.794
579.947;  150.098; -326.107; -127.806
580.224;  260.748; -692.107; -524.806
580.502;  272.102;  127.893;   76.193
580.779;   16.844;  -42.117;   75.210
581.057;  -47.464; -584.109; -470.804
581.334; -100.708; -726.102; -695.815
581.612;   35.815;   54.895;  511.190
581.889;  -24.145;  -83.101; -129.818
582.167;  -22.357; -298.099; -190.821
582.444;  -89.601; -845.102; -814.817
582.721;   98.725;  657.899;  715.183
582.999;   19.566; -326.100; -167.821
583.276;  430.067; -812.123; -713.779
583.553;  587.270; -364.102; -294.816
583.831;  183.549; -607.104; -631.812
584.108;   51.241;  349.892;  174.195
584.385;   17.591; -122.102;  -98.815
584.662;  -70.254; -651.111; -828.801
584.940;   29.245;  204.889;  204.199
585.217;  -12.400;  -73.113; -303.796
585.494;   23.454;   71.890;  118.198
585.771;  158.037; -250.109; -354.804
586.048;  439.400; -196.113;  -76.796
586.325;  267.299; -721.110; -773.801
586.602;   84.752;  230.896;  213.188
586.879;  -27.488; -499.100; -580.820
587.156;   49.441; -156.105; -331.810
587.433;  -43.128; -701.102; -667.817
587.710;   66.107;  152.888;  234.202
587.987;  263.346; -264.105; -236.811
588.264;  722.758;  315.888;  387.202
588.541; 1199.405;  -61.104;   26.187
588.818; 2369.739;   72.892;  171.196
589.095; 2047.675; -163.104; -174.812
589.371;  332.610; -459.109; -414.804
589.648;    1.927; -581.107; -437.807
589.925;   14.994; -517.114; -621.795
590.202;   -3.569; -741.112; -607.798
590.478;   77.922; -166.105;  -73.811
590.755;  211.420; -241.108; -132.806
591.032; 2074.526; -741.110; -699.802
591.308; 2859.292; -732.094; -790.831
591.585; 1501.550; -573.110; -560.802
591.862;  108.399;-1056.102; -950.817
592.138;   55.667; -475.108; -474.805
592.415;  109.403; -486.104; -495.813
592.691; 1311.426;  460.896;  518.188
592.968; 1649.705; -208.098; -123.824
593.244;  771.696; -695.116; -595.790
593.521;   55.974; -105.102;  -42.817
593.797;  -19.454; -810.122; -720.780
594.074;  266.467; -611.096; -588.826
594.350;  583.603;  828.905;  729.172
594.626;  261.871; -303.111; -283.801
594.903;  107.550; -643.101; -645.817
595.179;  168.657;  243.896;  418.187
595.455;   13.628; -136.107; -150.807
595.731;   20.183;  -19.103;  -38.814
596.008;  -38.859; -464.111; -434.800
596.284;   18.040; -187.100; -242.820
596.560;   36.574; -501.093; -493.833
596.836;  149.268; -173.105;  -70.810
597.112;  279.593; -582.108; -437.805
597.388;  231.590;  -49.097;  -48.826
597.665;  112.577;  437.887;  530.203
597.941;  -52.622; -572.089; -658.839
598.217;    8.954; -323.110; -293.802
598.493;  211.513;   61.891; -204.804
598.769;  440.584; -175.100;  -50.819
599.045;  241.921; -490.108; -562.806
599.321;   52.189; -193.100; -261.820
599.597;  103.137; -355.109; -476.804
599.872;  421.055;  409.896;  429.187
600.148;  325.167;  -61.097; -172.826
600.424;  245.301;   91.893;  202.193
600.700;  192.503; -170.107; -280.807
600.976;  109.886; -442.097; -464.825
601.252;  220.534; -226.109; -272.803
601.527;  180.531; -833.104; -840.813
601.803;  118.598; -453.105; -404.812
602.079;  146.284; -124.100; -118.819
602.354;  479.358; -620.092; -531.835
602.630;  706.425; -140.113; -482.796
602.906; 1926.005; -910.101; -863.818
603.181; 5735.901; -627.119; -534.786
603.457; 4933.465;   98.903; -278.826
603.733;  691.385; -605.120; -626.783
604.008;  818.115; -245.106; -164.810
604.284; 2648.501; -636.101; -580.817
604.559; 2313.386;   -3.112;  -42.799
604.835;  419.592; -163.105; -225.810
605.110;  338.694; -732.099; -892.821
605.385;  607.151;  224.907;  267.167
605.661;  542.006; -625.095; -729.829
605.936;  967.771; -664.108; -737.806
606.211;  819.965;  -17.103; -170.815
606.487;  169.114; -329.114; -376.794
606.762;   -6.898; -791.119; -745.786
607.037;  -24.532; -501.105; -433.810
607.313;  -57.326; -589.096; -574.828
607.588;   -7.161; -375.106; -137.810
607.863;   31.754;  -28.101; -143.818
608.138;  168.828;  513.890;  516.198
608.413;    3.523; -576.099; -592.822
608.688;   30.318; -203.108; -267.805
608.964;  153.458; -509.106; -218.809
609.239;  202.315; -107.105; -212.810
609.514;  204.348;  281.895;  240.188
609.789;  575.052; -187.104; -716.812
610.064;  740.923; -435.096; -609.827
610.339;  737.035; -855.109; -799.804
610.614;  981.264; -131.100; -315.820
610.889;  561.873;  215.895;  107.188
611.163;   25.874; -407.104; -591.812
611.438;   75.466;   81.886; -167.794
611.713;  -11.049; -467.101; -499.817
611.988;   35.728; -144.101; -328.818
612.263;  -41.033; -771.102; -717.815
612.538;  189.499;  385.887;  251.204
612.812;  113.715; -832.100; -911.820
613.087;  111.178; -358.098; -338.823
613.362;  -55.222; -497.107; -557.807
613.637;   38.686;  261.897;  138.186
613.911;  -20.891; -256.092; -345.835
614.186;   86.051; -249.107; -292.807
614.460;  550.476; -842.081; -758.854
614.735;  660.175;  -55.087;  -17.843
615.010;  127.441;   43.912;  -82.841
615.284;  229.217;  360.892;  246.195
615.559;  313.808; -792.092; -955.835
615.833;  260.471;  -76.099;  -87.822
616.108;  -11.756; -225.090; -390.837
616.382;  129.827;  274.913;  402.156
616.656;  130.345; -241.090; -232.837
616.931;  437.271; -785.099; -700.822
617.205;  904.356; -973.104; -979.813
617.480;  794.647;  -91.125;    6.225
617.754;  129.669; -396.125; -128.774
618.028;   -3.334; -369.129; -382.768
618.302;   62.916;   73.892;  -25.805
618.577;  -58.088; -371.103; -518.815
618.851;  -53.669; -399.109; -600.803
619.125;  -37.428; -335.134; -378.759
619.399;  -28.219; -244.104; -374.813
619.673;  -46.696; -330.115; -515.792
619.947;  -55.057; -333.114; -448.795
620.222;  -28.228; -198.110; -204.801
620.496;   -5.442;  -47.121;  -96.782
620.770;    6.675; -187.122;  -93.781
621.044;  187.966;  323.895;  346.190
621.318;  635.186; -653.120; -614.783
621.592;  564.834; -430.121; -409.783
621.866;  295.662; -476.112; -572.799
622.140;    8.373; -207.116; -356.791
622.413;   48.216;  138.889;  112.200
622.687;  -54.824; -746.101; -492.817
622.961;    8.516; -130.108; -143.805
623.235;  -54.584; -633.111; -661.800
623.509; -111.003; -816.105; -848.811
623.783;   -1.701;  -12.107;   48.193
624.056;  -22.863; -254.120; -280.783
624.330;   51.855;   63.888;   -3.797
624.604;   44.295; -271.116; -355.790
624.877;   57.952;  180.890;   26.198
625.151;   34.938; -249.114; -238.794
625.425;  -30.117; -150.103; -283.814
625.698;  -53.654; -367.119; -374.785
625.972;  -90.296; -799.110; -765.802
626.245;   72.846;  685.884;  484.210
626.519;  -73.334; -426.120; -340.784
626.792;  -34.972; -192.107; -380.807
627.066;  -88.957; -485.122; -662.779
627.339; -100.175; -736.110; -663.802
627.613;   32.965;  351.880;  148.216
627.886;   73.706;  187.891; -612.803
628.160;  -27.189;  312.880; -161.783
628.433;  -78.625; -695.125; -703.775
628.706;  -75.459; -517.120; -615.784
628.979;   21.106;  296.876;  117.223
629.253;  -94.224; -785.119; -833.786
629.526;  296.059; -334.126; -253.772
629.799;  258.863; -641.123; -479.778
630.072;  118.742; -497.128; -516.769
630.346;  -93.278;-1115.116;-1080.790
630.619;  381.504; -467.107; -545.808
630.892;  515.667;  709.889;  593.200
631.165;  320.456;  790.896;  679.187
631.438; -102.191;-1092.112;-1055.798
631.711;   45.766;  453.877;  257.221
631.984;  -73.133; -523.117; -624.789
632.257;  -70.487; -636.117; -681.789
632.530;  -52.604; -412.119; -433.785
632.803;   26.911; -109.115;    7.207
633.076;  -74.315; -360.123; -422.777
633.349;   12.121;  173.872;  121.231
633.622;  -41.130; -187.119; -240.785
633.895; -126.188; -903.120; -823.783
634.167;  -63.764; -496.126; -525.773
634.440;   -9.047;  -19.116; -137.792
634.713;  -17.600;  -22.119; -120.786
634.986;   70.461;  593.871;  453.233
635.258;  -82.691; -507.115; -597.793
635.531;   93.610;  742.882; -343.788
635.804;  -34.909; -303.117; -318.789
636.077;  -83.251; -830.116; -852.791
636.349;  -27.817; -586.115; -474.793
636.622;  366.309; 1695.874; 1392.228
636.894;  177.291; -474.120; -909.784
637.167;  117.278; -836.127; -789.771
637.439;   19.549; -278.128; -213.770
637.712;  -34.390; -312.126; -293.772
637.984; -101.075; -635.116; -707.791
638.257;  358.435;  515.877;  488.222
638.529;  502.326; -881.125; -924.776
638.802;  216.967; -508.128; -449.769
639.074; -106.076; -927.122; -952.781
639.346; -128.611; -942.135; -930.757
639.619;    5.925;  -79.142; -319.744
639.891;    4.893;  -83.122; -168.779
640.163;  -73.705; -689.122; -756.780
640.435;   22.797;  273.878;  103.220
640.708;   14.123;  -72.122; -132.780
640.980;  -27.300; -366.122; -362.781
641.252;  168.202;  -25.121;  -71.781
641.524; 1652.504;  580.879;  573.219
641.796; 1653.731;-1094.121; -907.782
642.068;  294.007; -191.121; -300.782
642.340;  -75.941; -486.121; -566.783
642.613;   34.861;  294.880;  323.217
642.885; -113.562; -787.120; -878.783
643.157;  -50.185; -810.120; -658.784
643.428;   63.316;  170.880;  218.216
643.700;  -75.607; -498.120; -425.784
643.972;  -27.230;  -16.119; -133.785
644.244;  -84.478; -474.119; -559.785
644.516;  -58.676; -250.119; -114.786
644.788;   59.475;  662.881;  548.214
645.060;  -25.948;  -12.119; -124.786
645.332;  -97.571; -525.118; -535.787
645.603;   29.156;  479.882;  342.213
645.875;  -86.292; -334.118; -369.787
646.147;  166.684; 1487.882; 1242.212
646.418;  -85.264; -931.117; -918.788
646.690;   78.863; -714.117; -715.789
646.962;   26.140; -413.117; -451.789
647.233;  -23.709;   15.883;   11.211
647.505;  -96.632; -595.117; -475.790
647.776;   13.070;  328.884;  229.210
648.048;   -2.003; -248.116; -418.790
648.320;  -83.851; -752.116; -679.791
648.591; -150.075;-1055.116; -958.791
648.862;  -84.573; -505.116; -577.792
649.134;   15.904;  115.885;  198.208
649.405;  -58.444; -661.115; -618.792
649.677;  -57.992; -475.115; -598.793
649.948;  -17.341; -181.115; -296.793
650.219;   -5.439;  -37.115; -147.793
650.491;  -71.862; -431.114; -520.794
650.762; -109.385; -705.114; -731.794
651.033;  -87.108; -437.114; -424.795
651.304;  -91.632; -743.114; -728.795
651.576;  -72.305; -680.114; -645.795
651.847;  -38.678; -250.113; -140.796
652.118;  -27.426;  -32.113; -189.796
652.389;  -99.799; -639.113; -722.796
652.660;  -31.823; -147.113;  -89.797
652.931; -133.821; -897.112; -871.797
653.202;  -83.919; -382.112; -541.798
653.473;  -72.167; -633.112; -533.798
653.744;  137.610; -595.112; -590.798
654.015;  120.686; -356.112; -303.799
654.286;  -79.337; -642.111; -663.799
654.557;  -68.660; -586.111; -521.799
654.828; -164.733;-1114.111;-1088.800
655.099;  -71.206; -404.111; -291.800
655.370; -103.030; -427.111; -543.801
655.641; -114.078; -656.110; -714.801
655.911;  -98.501; -618.110; -638.801
656.182;   46.351;  437.890;  387.198
656.453;   86.578;  830.890;  746.198
656.724;  -68.146; -466.110; -426.802
656.994;  -91.219; -553.109; -568.803
657.265; -103.417; -862.109; -873.803
657.536;  -82.015; -500.109; -377.804
657.806;  -98.414; -561.109; -593.804
658.077; -140.387; -866.109; -950.804
658.347;  -94.185; -523.108; -598.805
658.618; -102.733; -646.108; -694.805
658.888;  -13.681;  -41.108;  112.195
659.159;  -83.205; -432.108; -548.806
659.429;  -20.728; -292.108; -349.806
659.700;    6.099; -435.107; -390.807
659.970;  -13.824; -370.107; -359.807
660.241;   -5.147; -754.107; -921.807
660.511;  433.754; -147.107; -174.808
660.781;   63.056; -793.106; -748.808
661.052;  -41.642; -222.106; -381.808
661.322;  -10.840;   21.894;   -9.809
661.592;   17.237;  257.894;  148.191
661.862;  -78.662; -369.106; -382.810
662.133;  -86.635; -551.105; -502.810
662.403; -117.858; -770.105; -676.810
662.673;  -61.606; -256.105; -213.811
662.943;  -85.679; -612.105; -551.811
663.213;  -10.953;  -85.105;  -81.811
663.483;  -72.326; -593.104; -568.812
663.753;  -49.699; -194.104; -152.812
664.023;  -13.772;   68.896;  -32.813
664.293;  -58.370; -319.104; -126.813
664.563; -113.469; -694.104; -648.813
664.833; -115.542; -743.103; -608.814
665.103; -119.665; -730.103; -793.814
665.373; -131.338; -766.103; -806.814
665.643;  -91.911; -863.103; -918.815
665.913;   14.240; -534.103; -714.815
666.182;  121.492; -685.102; -719.816
666.452;  231.169;  -22.102;  -89.816
666.722;  -45.554; -724.102; -784.816
666.992; -123.878; -948.102; -921.817
667.261;  -95.976; -824.102; -808.817
667.531;  211.951;  134.899;   45.183
667.801;  540.103; -440.101; -412.818
668.070;  237.730;  714.899;  697.182
668.340;  -97.319; -883.101; -840.819
668.609;   81.683;  588.900;  301.181
668.879;  -72.515; -490.100; -558.819
669.149;  -68.113; -539.100; -516.820
669.418; -109.086; -698.100; -726.820
669.688;  -35.235; -482.100; -666.820
669.957;   41.817; -423.099; -546.821
670.226;  -28.906; -268.099; -331.821
670.496;  -85.979; -431.099; -635.822
670.765;  -70.727; -418.099; -501.822
671.034; -126.401; -872.099; -828.822
671.304;  -12.074;   55.902; -111.823
671.573; -148.722;-1085.098; -957.823
671.842;   62.555; -380.098; -294.823
672.112;   16.182; -692.098; -586.824
672.381;   -4.967; -239.098; -214.824
672.650; -145.590;-1005.097;-1021.825
672.919;  -91.213; -631.097; -507.825
673.188;  -93.786; -681.097; -878.825
673.457; -152.434;-1101.097;-1143.826
673.726;  -73.658; -579.096; -646.826
673.995;  -45.231; -533.096; -479.826
674.265;  -22.504; -263.096; -333.827
674.534;    8.198; -183.096; -235.827
674.802;   -9.075; -618.096; -703.828
675.071;  824.426; -886.095; -801.828
675.340; 3374.253; -464.095; -339.828
675.609; 1137.405;  103.905;   82.171
675.878;   51.757; -949.095; -893.829
676.147;   12.859;  -26.095;   -8.829
676.416;   61.185; -210.094; -294.830
676.685;  640.737; 1000.906; -622.830
676.953;   64.439; -603.094; -452.831
677.222;  -31.509; -193.094; -273.831
677.491;  -24.058;  -24.094; -127.831
677.759;   -7.156;   11.907;  172.168
678.028;  -31.104; -279.093; -222.832
678.297;   -3.502;   71.907;  197.168
678.565; -143.400; -898.093; -944.833
678.834;  -52.299; -311.093; -268.833
679.102;  -69.322; -411.092; -391.834
679.371; -138.145; -898.092; -727.834
679.639; -131.293; -797.092; -786.834
679.908; -122.291; -794.092; -724.835
680.176; -159.765; -895.091; -941.835
680.445;  -75.988; -346.091; -352.835
680.713;  -31.136;  -58.091;  -23.836
680.982;  -90.209; -523.091; -525.836
681.250; -111.332; -578.091; -507.837
681.518;  -97.306; -534.090; -751.837
681.787;  -31.554; -204.090; -167.837
682.055;  -72.977; -490.090; -422.838
682.323; -157.450; -993.090; -992.838
682.591;   12.652; -216.090; -538.838
682.859;   65.403;    9.911;  -35.839
683.128;   -8.020;  232.911;  497.161
683.396; -162.218;-1102.089;-1122.840
683.664;  -42.816; -241.089;   21.160
683.932;    6.136;  144.911;  -76.840
684.200;  -83.963; -576.088; -320.841
684.468;  -28.911;  -73.088; -124.841
684.736;  -39.759; -214.088; -175.841
685.004; -125.832;-1024.088; -982.842
685.272;  -57.455; -880.088; -774.842
685.540;  -67.904; -499.087; -557.843
685.808;  -84.977; -651.087; -682.843
686.076; -111.725; -894.087; -969.843
686.343;  -68.398; -601.087; -815.844
686.611;   19.053; -195.087; -224.844
686.879;  376.805; -530.086; -553.844
687.147; 2840.757; -483.086; -480.845
687.414;  804.734;  -12.086; -169.845
687.682;   -8.939; -658.086; -757.846
687.950;  264.062;  259.915;  263.154
688.217;  -11.486; -792.085; -760.846
688.485;  -28.384; -632.085; -636.847
688.753;  435.493;  -11.085; -102.847
689.020;  117.995; -820.085; -851.847
689.288; -117.404; -853.084; -787.848
689.555;  -24.002; -195.084; -148.848
689.823;  -48.675; -241.084; -345.849
690.090;  -64.623; -546.084; -651.849
690.358; -151.621; -877.084; -897.849
690.625;    3.730;  120.917;   45.150
690.892;  -90.943; -403.083; -369.850
691.160;  -28.866;   72.917;  -35.850
691.427;   -2.714;  141.917;  130.149
691.694; -134.062; -855.083; -929.851
691.962; -142.186;-1177.082;-1060.852
692.229;   19.041;  127.918;   56.148
692.496;   58.368;  130.918;  -49.852
692.763;   23.570; -164.082; -201.853
693.031;  -68.353; -739.082; -716.853
693.298;  -43.577; -509.081; -368.853
693.565;  246.500; -155.081; -163.854
693.832; 1079.852;   -5.081;   -9.854
694.099;  114.129; -643.081; -642.855
694.366;  -67.344; -882.081; -896.855
694.633;  -45.318; -920.080; -633.855
694.900;  723.884; 4367.920; -114.856
695.167;  368.586; -214.080; -380.856
695.434;   81.013; -646.080; -623.856
695.701;  167.840;  121.921;  -61.857
695.968;  441.141; -365.079; -361.857
696.234;  950.343; -415.079; -646.858
696.501;10156.120; -776.079; -614.858
696.768; 5265.447; -554.079; -617.858
697.035;  313.423; -632.078; -667.859
697.302;   24.575; -448.078; -552.859
697.568;    2.352; -458.078; -497.859
697.835;  -37.246; -683.078; -624.860
698.102;   -4.819; -498.078; -407.860
698.368;   64.757;  384.923;  396.139
698.635;  -29.916;  -47.077; -424.861
698.901;  -19.964; -240.077; -348.861
699.168;   51.188; -534.077; -456.862
699.435;   63.865;  -72.077;  -13.862
699.701; -101.859; -868.076; -764.862
699.968;   20.193;  144.924; -441.863
700.234;  -95.805; -783.076; -822.863
700.500;  -43.878; -448.076; -539.864
700.767;   -2.501;   -1.075;   26.136
701.033; -125.525;-1015.075; -963.864
701.299;  -53.673; -450.075; -483.865
701.566;  108.104;  950.925;  763.135
701.832;   40.506;  -31.075;  -76.865
702.098;  -93.267;-1054.074;-1034.866
702.365;  -72.216;-1098.074;-1030.866
702.631;  -45.839;-1038.074;-1063.867
702.897; 1230.938; -765.074; -676.867
703.163; 2102.565;  348.926;  254.133
703.429;  148.367; -256.073; -273.868
703.695;  -37.207; -796.073; -792.868
703.961;   21.170; -214.073; -210.868
704.227;  -51.628; -630.073; -725.869
704.493;  126.699;  613.927;  510.131
704.759;  -22.524; -565.072; -540.870
705.025;   32.052; -203.072; -194.870
705.291;  -16.396; -666.072; -562.870
705.557;  194.231;  719.928;   34.129
705.823;   31.033; -742.072; -694.871
706.089;  137.959; -307.071; -326.871
706.355;  342.611; -315.071; -244.872
706.620; 5711.488; -776.071; -729.872
706.886; 7965.815; -309.071; -362.873
707.152;  726.492; -818.070; -973.873
707.418;   -9.057;-1153.070;-1186.873
707.683;   -0.180; -550.070; -530.874
707.949;  -37.503; -547.070; -578.874
708.215;    1.174; -129.070; -207.874
708.480;  -30.949; -520.069; -420.875
708.746;   89.702;   68.931;   28.125
709.011;  -80.921; -578.069; -612.876
709.277;  -60.694; -538.069; -543.876
709.542;  -50.092; -428.069; -387.876
709.808;    4.860;  -59.068;   89.123
710.073;  -83.689; -577.068; -695.877
710.339;  -29.887; -242.068; -228.877
710.604;   61.615; -780.068; -845.878
710.869;  301.392; -277.068; -366.878
711.135;  -76.631; -715.067; -628.879
711.400;  -77.180; -507.067; -608.879
711.665;  -64.503; -404.067; -479.879
711.931;  -90.726; -661.067; -677.880
712.196; -130.349; -876.067; -954.880
712.461;   79.378; -402.066; -490.880
712.726;  132.979; -727.066; -771.881
712.991;  -87.344; -647.066; -664.881
713.256;  -25.917; -350.066; -332.882
713.521;  -51.115; -417.065; -381.882
713.787;  -56.863; -454.065; -472.882
714.052;  -29.287; -214.065; -400.883
714.317;  -89.135;-1045.065; -981.883
714.581; 1053.842; -374.065; -268.883
714.846; 1483.844; -822.064; -888.884
715.111;  131.096;  261.936;  257.116
715.376;  -26.053;  -86.064; -223.885
715.641;  -21.076; -365.064; -367.885
715.906;  257.051;   15.936; -551.885
716.171;  121.953;  221.937;  209.114
716.436;   32.354;  -78.063; -104.886
716.700; -110.769; -818.063; -692.886
716.965; -121.142; -794.063; -807.887
717.230;  -67.940; -339.063; -392.887
717.494;  -20.488;  -40.062; -134.888
717.759;  -97.487; -784.062; -640.888
718.024;    7.440;  269.938;  250.112
718.288;   82.642;  685.938;  395.111
718.553; -147.481; -803.062; -977.889
718.817; -127.629; -883.061; -899.889
719.082;  -38.878; -115.061; -125.890
719.346; -124.426;-1000.061; -947.890
719.611;  -37.599; -300.061; -255.891
719.875;  -99.947; -568.060; -537.891
720.140;  -86.495; -453.060; -603.891
720.404;   29.031; -136.060; -249.892
720.668;  735.808; -475.060; -411.892
720.933;  304.010;  146.940;  137.108
721.197; -101.063; -667.059; -600.893
721.461; -122.736; -851.059; -826.893
721.725;  -21.060;  -21.059; -250.894
721.990;  -53.008; -284.059; -204.894
722.254;  -20.431;  -26.059; -108.894
722.518;  -60.329; -286.058; -442.895
722.782;  -91.352; -743.058; -594.895
723.046;  122.199;  614.942;  570.105
723.310;   16.126;  374.942;  210.104
723.574;  -95.297; -654.058; -614.896
723.838; -100.570; -576.057; -642.897
724.102;  -46.268; -226.057; -239.897
724.366; -138.692;-1032.057; -978.897
724.630;  -91.515; -749.057; -571.898
724.894;  -73.363; -722.057; -514.898
725.158;  -15.236;   38.944; -295.898
725.422;  -55.160; -394.056; -327.899
725.685;  -59.608; -441.056; -349.899
725.949;  -76.806; -566.056; -519.900
726.213;  -76.954; -732.056; -811.900
726.477;  118.823;-1020.055; -933.900
726.740;  135.774; -274.055; -104.901
727.004;  291.476; -384.055; -510.901
727.268; 3358.028; -442.055; -400.901
727.531; 1003.905; -961.055; -775.902
727.795;  -37.868; -713.054; -673.902
728.059;  -63.717; -552.054; -557.903
728.322;  -82.490; -841.054; -669.903
728.586;    2.537; -692.054; -701.903
728.849;  -83.686; -695.053; -756.904
729.112; -114.959; -812.053; -912.904
729.376; -127.858; -959.053; -905.904
729.639;  -81.531; -536.053; -536.905
729.903; -107.754; -733.053; -699.905
730.166;  -48.152; -437.052; -399.906
730.429;  -29.950; -317.052; -468.906
730.693;  -69.199; -355.052; -894.906
730.956;  200.003;  810.948;  651.093
731.219;  626.855; -310.052; -103.907
731.482;  100.457;-1003.051; -894.907
731.745;   61.934; -794.051; -935.908
732.009;    3.010;  -30.051;   50.092
732.272; -101.413; -904.051; -771.909
732.535;  -43.411; -300.051; -310.909
732.798; -147.709;-1083.050;-1166.909
733.061;  -66.032; -430.050; -456.910
733.324;   -2.756;   31.950; -180.910
733.587;   65.471;  290.950;  365.090
733.850;  -71.777; -973.049;-1050.911
734.113;   26.825;   33.951;   32.089
734.376;   -0.324; -328.049; -447.912
734.639;  199.203; 1188.951; 1011.088
734.901;   61.105; -180.049; -402.912
735.164;  441.782; -883.048; -837.913
735.427; 1194.734; -166.048; -355.913
735.690;  119.985; -205.048; -234.913
735.952;  -39.663; -923.048; -925.914
736.215;  -17.986;-1113.048;-1009.914
736.478;   30.441; -771.047; -774.915
736.740;  186.393;   33.953;  129.085
737.003;  581.994; -658.047; -672.915
737.266; 3635.846;  -94.047;   46.084
737.528;  382.973; -682.047; -660.916
737.791;  307.200; -316.046; -327.916
738.053;  758.277;  465.954;  649.083
738.316;10478.203; -162.046; -136.917
738.578; 7569.280; -770.046; -736.918
738.841;  457.232; -382.046; -446.918
739.103;  168.459; -875.045; -777.918
739.365;  480.036;   79.955;  -69.919
739.628;   -4.688; -884.045; -805.919
739.890;  -26.011; -758.045; -710.919
740.152;  -49.934; -692.044; -754.920
740.414;  -21.057; -408.044; -359.920
740.677;  -52.505; -785.044; -634.921
740.939;  -41.879; -587.044; -487.921
741.201;  221.898; -432.044; -572.921
741.463;   29.100; -689.043; -745.922
741.725;   10.677;  -21.043; -199.922
741.987;   36.904;  220.957;  116.078
742.249;  -15.920; -751.043; -859.923
742.511;  182.182; -703.043; -794.923
742.773;   16.059; -546.042; -546.924
743.035;  131.886;  796.958;  533.076
743.297;  -50.737; -963.042;-1013.924
743.559;  666.189; -278.042; -262.925
743.821;   43.816; -735.042; -744.925
744.083;    6.868;  -44.041; -149.925
744.345;  -93.130; -869.041; -892.926
744.607;   32.396;   75.959;  122.074
744.868;  -66.802; -490.041; -554.927
745.130; -105.800; -994.041;-1008.927
745.392;   28.177;   -1.040;  -44.927
745.653;  -12.921; -411.040; -378.928
745.915;  131.830;  896.960;  631.072
746.177;   63.532;   35.960;  -43.928
746.438;   -8.041; -428.040; -543.929
746.700;  -42.839; -947.039; -988.929
746.961;    0.113; -659.039; -740.930
747.223;  119.914; -190.039;  -74.930
747.484;   80.016; -391.039; -471.930
747.746;  141.818;  -23.038; -106.931
748.007;  100.245; -647.038; -689.931
748.269;  267.172; -468.038; -440.931
748.530;  428.473; -852.038; -638.932
748.791;  240.025; -354.038; -420.932
749.053;  402.902;  286.963;  163.067
749.314;  427.804; -236.037; -169.933
749.575;  456.506; -945.037; -905.933
749.836;  795.982; -217.037;   86.066
750.098; 2221.209;  -60.037;  -21.934
750.359;33854.611;  414.964;  555.066
750.620; 8922.063; -121.036; -220.935
750.881;  965.265; -585.036; -513.935
751.142; 1255.216; -950.036; -938.936
751.403;15928.518; -789.036; -705.936
751.664; 7280.870;-1034.035; -999.936
751.925;  487.747; -175.035; -262.937
752.186;  261.374; -298.035; -278.937
752.447;  124.475; -590.035; -445.937
752.708;   37.077; -532.035; -648.938
752.969;   -2.646; -566.034; -576.938
753.230;   -9.044; -777.034; -672.939
753.491;   -6.743; -650.034; -631.939
753.751;   86.884;  109.966;   19.061
754.012;   99.911;  258.967;  181.060
754.273;   57.413; -174.033;  -71.940
754.534;   -3.360; -487.033; -580.940
754.794;  -89.259; -926.033; -911.941
755.055;  155.943; 1051.967;  881.059
755.316;  -47.005; -700.032; -566.942
755.576;  -42.003; -606.032; -576.942
755.837;  -56.276; -527.032; -695.942
756.097;  -36.825; -530.032; -564.943
756.358;  -74.798; -725.032; -770.943
756.618;  -58.221; -705.031; -641.943
756.879;   16.381; -254.031; -349.944
757.139; -116.567;-1098.031;-1116.944
757.400;  -48.666; -538.031; -553.945
757.660;  -20.039; -365.031; -401.945
757.920;    6.238; -266.030; -228.945
758.181;  -22.460; -468.030; -351.946
758.441; -100.283; -870.030; -809.946
758.701;  -20.482; -308.030; -215.946
758.961;  -19.530; -220.030; -278.947
759.222;  -44.978; -574.029; -502.947
759.482;  -86.976; -683.029; -723.948
759.742;  -75.449; -706.029; -547.948
760.002;    6.402;  -83.029; -143.948
760.262;   16.104;   50.972;  182.051
760.522;  -38.419; -498.028; -574.949
760.782;  -55.767; -738.028; -612.949
761.042;  -35.440; -618.028; -573.950
761.302;   42.061;   55.972;  -18.950
761.562;   44.038; -164.027; -154.951
761.822;   64.890; -710.027; -551.951
762.082;  -46.083;-1104.027;-1093.951
762.342;   63.419; -328.027; -403.952
762.601;   80.720; -567.027; -506.952
762.861;  331.347; -281.026; -207.952
763.121;  368.274; -406.026; -411.953
763.381; 7062.001; -499.026; -485.953
763.640; 8028.677; -139.026; -307.954
763.900;  352.129; -242.026; -203.954
764.160;  103.281; -458.025; -491.954
764.419;  -12.492; -726.025; -782.955
764.679;  -70.490; -795.025; -726.955
764.939;  -11.764; -124.025; -210.955
765.198;  -92.762; -608.025; -563.956
765.458;  -77.335; -710.024; -612.956
765.717;  -84.883; -454.024; -590.957
765.976;  -59.231; -428.024; -411.957
766.236;  -77.730; -475.024; -610.957
766.495;   32.822;  260.977;   73.042
766.755;  -95.201;-1090.023; -987.958
767.014;    1.776; -594.023; -665.958
767.273;  -51.047; -373.023; -397.959
767.533;  -33.921; -228.023; -307.959
767.792;  -37.394; -151.022; -188.960
768.051;  -56.317; -228.022; -276.960
768.310;  -84.765; -546.022; -650.960
768.569;   -3.913; -161.022;    4.039
768.828;  -41.037; -285.022; -363.961
769.088; -106.960;-1050.021; -942.961
769.347;  -78.058; -755.021; -599.962
769.606;  -89.731; -876.021; -857.962
769.865; -121.854;-1016.021;-1033.963
770.124;    6.897; -411.021; -336.963
770.383;  -40.851; -778.020; -910.963
770.641;   12.026; -398.020; -400.964
770.900;  -69.647; -953.020; -846.964
771.159;  -48.370; -851.020; -951.964
771.418;  -17.444; -917.020; -779.965
771.677;  132.858; -224.019; -293.965
771.936;  142.585; -794.019; -865.966
772.194; 2228.537; -465.019; -437.966
772.453;11390.013; -213.019; -391.966
772.712;  804.540;  416.982;  329.033
772.970;  130.117;   32.982;   63.033
773.229;   85.019;  -22.018;  102.033
773.488;  -81.629; -814.018; -770.968
773.746;   60.422;  296.982;  335.032
774.005;    2.099;  190.983;  -22.969
774.263;   19.076;  243.983;  177.031
774.522;  -42.522; -422.017; -548.969
774.780;  -70.145; -484.017; -417.970
775.039;  -89.344; -551.017; -531.970
775.297;  -23.442; -135.016; -351.970
775.555; -113.240; -489.016; -612.971
775.814; -122.038; -618.016; -570.971
776.072; -130.661; -749.016; -740.971
776.330;  -97.610; -630.016; -520.972
776.589; -112.333; -703.015; -721.972
776.847; -128.356; -645.015; -624.973
777.105; -169.404;-1016.015;-1032.973
777.363;  -81.377; -459.015; -454.973
777.621; -136.926; -660.015; -717.974
777.879;  -10.749;  -42.014;   32.026
778.138; -108.972; -554.014; -717.974
778.396;  -90.520; -585.014; -526.975
778.654; -172.343;-1015.014; -970.975
778.912;  -64.617; -269.014; -371.976
779.170; -141.290; -880.013; -803.976
779.427; -139.663; -922.013; -897.976
779.685; -141.036; -880.013; -832.977
779.943;  -73.159; -654.013; -593.977
780.201; -161.408; -964.012; -883.978
780.459; -119.156; -651.012; -610.978
780.717;  -87.729; -440.012; -390.978
780.974; -103.127; -449.012; -490.979
781.232;  -76.100; -358.012; -338.979
781.490;  -84.249; -551.011; -472.979
781.747;  -89.972; -555.011; -476.980
782.005;   24.380;  462.989;  254.020
782.263; -164.643; -542.011;-1004.981
782.520;  -86.492; -326.011; -501.981
782.778; -167.790;-1013.010;-1051.981
783.035; -175.238; -962.010; -938.982
783.293;  -47.611; -248.010; -206.982
783.550;  -50.034; -134.010; -198.982
783.808; -138.083; -764.010; -776.983
784.065; -155.831; -745.009; -874.983
784.322;  -40.079;   25.991;  -86.984
784.580; -144.427; -915.009; -771.984
784.837;  -98.150; -392.009; -466.984
785.094; -131.149; -783.009; -762.985
785.352;  -85.147; -304.008; -404.985
785.609; -109.595; -934.008; -839.985
785.866;  -95.618; -345.008; -401.986
786.123;  -70.691; -639.008; -583.986
786.380;  -99.390; -665.008; -604.987
786.637;  -31.288; -225.007; -380.987
786.895;  -40.211; -456.007; -543.987
787.152;  -45.984; -135.007; -267.988
787.409;  -45.657; -123.007; -225.988
787.666;  -97.581; -299.006; -378.988
787.923; -100.654; -616.006; -695.989
788.179; -101.577; -551.006; -584.989
788.436; -107.975; -585.006; -585.990
788.693;  -23.498;  -92.006;  -87.990
788.950;   99.278; -125.005; -112.990
789.207;  180.405; -381.005; -372.991
789.464;  -41.693; -161.005; -301.991
789.720;    5.984;  150.995;  110.009
789.977; -165.989;-1003.005; -671.992
790.234;  -28.238;   44.996;  -66.992
790.490; -155.161; -884.004;-1031.993
790.747;  -21.559;  -85.004;   22.007
791.004;  -31.207; -426.004; -348.993
791.260;  -76.431; -430.004; -560.994
791.517; -100.404; -843.003; -788.994
791.773;  -54.927; -379.003; -342.994
792.030; -118.075; -596.003; -660.995
792.286; -104.248; -686.003; -636.995
792.543;  -12.547;  -74.002; -159.995
792.799;  -51.820; -584.002; -382.996
793.055; -154.543;-1179.002;-1210.996
793.312;  -94.591; -827.002; -816.997
793.568;  -69.139; -746.002; -599.997
793.824;   12.262; -226.001; -284.997
794.081;   10.789; -447.001; -508.998
794.337;   38.841; -664.001; -561.998
794.593; 1189.543; -319.001; -271.999
794.849; 6313.320; -746.001; -772.999
795.105;  320.596; -270.000; -261.999
795.361;   13.998; -490.000; -457.000
795.617;  -60.750; -875.000; -945.000
795.873;  -51.950; -360.000; -407.000
796.129;  -34.650; -368.000; -306.000
796.385;  -19.775; -124.000; -156.000
796.641;   50.975;  412.000;  550.000
796.897;  -82.975; -666.000; -635.000
797.153;   57.600;  453.000;  357.000
797.409;  -97.275; -785.000; -868.000
797.665;  -77.800; -625.000; -732.000
797.921;  -80.050; -775.000; -762.000
798.176;  -52.075; -744.000; -747.000
798.432;  -46.200; -824.000; -596.000
798.688;  -71.500;-1174.000;-1078.000
798.943;  102.400; -165.000; -147.000
799.199;    1.675;-1005.000; -959.000
799.455;  240.050;  369.000;  316.000
799.710;  136.175; -813.000; -380.000
799.966;  319.675; -162.000; -160.000
800.221;  465.025; -638.000; -721.000
800.477;10068.325; -743.000; -710.000
800.732; 9453.850; -773.000; -800.000
800.988;  649.900;  205.000;  -19.000
801.243; 1859.475; -454.000; -344.000
801.498; 8583.600; -814.000; -739.000
801.754;  485.000; -289.000; -163.000
802.009;   96.525; -257.000; -335.000
802.264;  -42.675; -967.000;-1033.000
802.520;   21.725;  222.000;   -3.000
802.775;  -32.775; -524.000; -359.000
803.030;   41.550;  395.000;  356.000
803.285; -115.125; -840.000; -903.000
803.540;  -58.250; -686.000; -699.000
803.795;  -49.800; -648.000; -583.000
804.051;  -41.200; -279.000; -346.000
804.306;   14.150;  168.000;  128.000
804.561;  134.775;  451.000;  362.000
804.816;  118.975;  714.000;  861.000
805.071;    2.050; -185.000; -280.000
805.325;  175.575; -257.000; -427.000
805.580; -114.050; -841.000; -877.000
805.835;  -12.425; -204.000; -297.000
806.090;  -79.200; -760.000; -676.000
806.345;  -16.525; -344.000; -264.000
806.600;  -26.875; -549.000; -632.000
806.854;  -36.300; -408.000; -538.000
807.109;  -25.450; -493.000; -577.000
807.364;    4.100; -407.000; -328.000
807.618;   -7.600; -415.000; -381.000
807.873;   32.325; -470.000; -494.000
808.128;   94.825; -257.000; -518.000
808.382;   93.300; -224.000; -332.000
808.637;   64.525; -440.000; -511.000
808.891;  183.650; -257.000; -180.000
809.146;  108.425; -902.000; -794.000
809.400;  246.200; -848.000; -923.000
809.654;  307.525; -779.000; -551.000
809.909;  457.250; -841.000; -927.000
810.163; 5845.775; -813.000; -651.000
810.418;15970.625; -940.000; -861.000
810.672; 1014.700; -685.000; -690.000
810.926;  687.750; -993.000; -973.000
811.180; 1359.375; -439.000; -372.000
811.434;31110.925;  240.000;  135.000
811.689;13287.175; -231.000; -365.000
811.943;  628.225; -936.000; -953.000
812.197;  330.850; -893.000; -671.000
812.451;  124.400; -379.000; -514.000
812.705;  -10.575; -809.000; -619.000
812.959;    3.275; -263.000; -388.000
813.213;  -13.450; -283.000; -209.000
813.467;   72.825;  470.000;  253.000
813.721;  -93.775; -764.000; -792.000
813.975; -113.050; -826.000; -877.000
814.229;   55.700;  430.000;  353.000
814.482;  -81.325; -517.000; -566.000
814.736; -111.225; -766.000; -744.000
814.990; -132.175; -779.000; -872.000
815.244;  -47.025; -228.000; -285.000
815.497;  -87.525; -636.000; -601.000
815.751;  -16.525; -141.000;   82.000
816.005;  -75.250; -470.000; -586.000
816.258;  -49.750; -510.000; -363.000
816.512; -109.575; -693.000; -610.000
816.766;    4.450;  121.000;  157.000
817.019;   26.225;  148.000;  149.000
817.273; -113.525;-1000.000; -802.000
817.526;  -40.400; -206.000; -173.000
817.779;  -53.825;-1049.000; -960.000
818.033;  -73.875; -693.000; -807.000
818.286; -119.800; -725.000; -792.000
818.540;  -94.825; -403.000; -403.000
818.793;  -75.250; -402.000; -489.000
819.046; -107.350; -582.000; -520.000
819.299;  -36.250; -157.000; -166.000
819.553; -115.600; -552.000; -592.000
819.806; -159.525;-1016.000; -838.000
820.059;  -62.700; -334.000; -354.000
820.312;   11.575;  152.000;  185.000
820.565;  -15.575;  110.000;  -27.000
820.818;  -46.150;  -59.000; -173.000
821.071; -170.100;-1041.000; -957.000
821.324;  -83.000; -536.000; -540.000
821.577; -105.675; -457.000; -483.000
821.830;  -57.525; -270.000; -172.000
822.083; -137.150; -733.000; -288.000
822.336;  -37.050; -261.000; -167.000
822.589; -135.275; -805.000; -688.000
822.842; -142.500; -875.000; -770.000
823.094; -179.100;-1076.000;-1114.000
823.347; -129.500; -925.000; -729.000
823.600;   19.300;  402.000;  187.000
823.853;  -49.200; -311.000; -267.000
824.105;  -58.450; -331.000; -575.000
824.358;  -95.525; -617.000; -716.000
824.611;   32.600;  234.000;   40.000
824.863;  -58.425; -612.000; -591.000
825.116;   36.000;  -33.000;   27.000
825.368;   64.875; -366.000; -372.000
825.621;  155.550; -186.000; -240.000
825.873;   78.075; -704.000; -737.000
826.126;  544.200; -669.000; -641.000
826.378;11214.400; -389.000; -505.000
826.630; 2933.375; -890.000; -898.000
826.883;   36.775; -754.000; -693.000
827.135;   45.475; -279.000; -270.000
827.387; -110.125; -893.000; -839.000
827.639;  -35.000;  -86.000;   32.000
827.892; -109.475; -742.000; -582.000
828.144; -131.500; -848.000; -804.000
828.396;  -27.900;  104.000;  -80.000
828.648; -108.250; -440.000; -333.000
828.900; -142.725; -702.000; -795.000
829.152; -113.200; -684.000; -683.000
829.404;  -59.550; -215.000; -267.000
829.656;  -66.800;  321.000;  214.000
829.908;   -4.425;  393.000;  229.000
830.160; -170.600;-1064.000;-1047.000
830.412;  -92.675; -481.000; -430.000
830.664; -114.775; -557.000; -665.000
830.916;  -71.725; -268.000; -206.000
831.167; -176.275;-1073.000; -951.000
831.419; -106.725; -623.000; -566.000
831.671; -140.925; -764.000; -809.000
831.923;  -85.100; -311.000; -447.000
832.174;  -74.100; -273.000; -331.000
832.426; -111.675; -493.000; -582.000
832.678; -187.275;-1043.000;-1091.000
832.929; -156.750; -947.000; -935.000
833.181;  -71.125; -575.000; -677.000
833.432;  -49.150;  -59.000; -186.000
833.684;  -20.325;  112.000;  -27.000
833.935; -102.950; -610.000; -566.000
834.187; -135.925; -829.000; -823.000
834.438;  -40.925;  -58.000;  -25.000
834.689;  -54.900; -255.000; -123.000
834.941;  -61.450; -343.000; -244.000
835.192; -106.375; -590.000; -533.000
835.443; -107.125; -419.000; -506.000
835.695;  -28.550;  138.000;  -16.000
835.946;  -78.375; -608.000; -378.000
836.197; -107.950; -599.000; -622.000
836.448;  -90.725; -528.000; -395.000
836.699;  -58.350; -253.000; -341.000
836.950;  -16.150;   72.000;    7.000
837.201; -149.650;-1003.000; -987.000
837.452;  -53.825; -356.000; -170.000
837.703; -119.475; -791.000; -737.000
837.954;  -42.700; -205.000; -365.000
838.205;  -94.475;-1029.000;-1008.000
838.456;  144.550; -196.000; -282.000
838.707;    1.350; -423.000; -519.000
838.958;    2.225; -634.000; -647.000
839.209;  250.375;   18.000;   40.000
839.460;  109.625; -439.000; -201.000
839.710;  151.875; -135.000; -297.000
839.961;  407.850;  730.000;  612.000
840.212;  310.400; -382.000; -497.000
840.462; 1068.225; -328.000; -277.000
840.713;17259.950; -571.000; -536.000
840.964; 7410.175;  -62.000; -143.000
841.214;  501.200; -384.000; -624.000
841.465;  530.500; -214.000; -141.000
841.715;  458.925; -417.000; -380.000
841.966;  577.125; -746.000; -685.000
842.216; 7715.725; -330.000; -431.000
842.466;31307.250; -169.000; -313.000
842.717; 1862.575; -964.000; -952.000
842.967;  273.475; -635.000; -641.000
843.217;  228.175;   20.000;   28.000
843.468;   66.400; -104.000; -132.000
843.718;  -48.000; -718.000; -726.000
843.968; -103.525; -837.000; -765.000
844.218;   -3.900; -315.000; -262.000
844.469;  -53.650; -577.000; -561.000
844.719; -100.825; -537.000; -682.000
844.969;  -86.475; -550.000; -580.000
845.219; -141.650; -814.000; -862.000
845.469;  -79.525; -392.000; -342.000
845.719; -143.075; -792.000; -884.000
845.969;   -8.150;  119.000;  174.000
846.219; -124.150; -738.000; -720.000
846.469;   34.825;  464.000;  432.000
846.718;  -62.375; -115.000;   31.000
846.968; -122.550; -827.000; -827.000
847.218;  -53.900; -224.000; -371.000
847.468;   -0.225; -586.000; -555.000
847.718; -143.375; -827.000; -798.000
847.967; -128.525; -826.000; -915.000
848.217;  -87.900; -449.000; -569.000
848.467;  -61.200; -405.000; -376.000
848.716; -124.025; -708.000; -725.000
848.966;  -10.025; -372.000; -358.000
849.215;  -53.025; -428.000; -419.000
849.465;  -91.650; -785.000; -615.000
849.714; -137.200;-1132.000;-1150.000
849.964;  -65.350; -551.000; -613.000
850.213;  -15.600; -393.000; -355.000
850.463;   82.425;  137.000;  340.000
850.712;   -8.850; -542.000; -567.000
850.961;   10.450; -739.000; -678.000
851.211;   80.650; -513.000; -504.000
851.460;  170.950; -635.000; -650.000
851.709;  530.025;  -25.000;   18.000
851.958; 9832.450; -912.000; -750.000
852.208;12881.875; -859.000; -879.000
852.457;  480.600; -181.000;  -13.000
852.706;   53.125; -791.000; -823.000
852.955;   24.950; -507.000; -528.000
853.204;  -74.875; -521.000; -461.000
853.453;  -89.175; -418.000; -458.000
853.702; -133.975; -660.000; -750.000
853.951; -107.925; -532.000; -520.000
854.200; -117.000; -613.000; -562.000
854.449; -127.575; -695.000; -661.000
854.698;  -93.825; -340.000; -279.000
854.946;  -70.175; -181.000; -284.000
855.195; -149.175; -843.000; -868.000
855.444;  -85.575; -395.000; -420.000
855.693; -124.400; -345.000; -432.000
855.941; -100.975; -387.000; -516.000
856.190;  -67.300; -256.000; -382.000
856.439; -126.400; -652.000; -703.000
856.687;  -63.725;  -99.000;  -72.000
856.936; -109.650; -621.000; -323.000
857.184; -192.575;-1067.000;-1020.000
857.433; -111.000; -423.000; -512.000
857.681; -177.675; -989.000; -953.000
857.930;  -88.225; -282.000; -433.000
858.178; -172.075; -856.000; -929.000
858.427; -152.925; -802.000; -781.000
858.675; -119.075; -377.000; -544.000
858.923; -110.400; -527.000; -819.000
859.172; -178.525;-1094.000;-1070.000
859.420;  -94.700; -339.000; -239.000
859.668; -148.625; -624.000; -628.000
859.916;   -8.350;  109.000;  115.000
860.164; -122.300; -699.000; -603.000
860.413;  210.925; -878.000; -696.000
860.661;  174.100; -709.000; -577.000
860.909;  -74.750; -339.000; -325.000
861.157;  -93.275; -277.000; -444.000
861.405; -133.950; -534.000; -670.000
861.653;    5.675;  310.000;  310.000
861.901;  121.850; -543.000; -613.000
862.149;   -6.950; -801.000; -824.000
862.396;  -76.800; -297.000; -187.000
862.644;  -80.725; -368.000; -347.000
862.892;  -38.375;   98.000;  138.000
863.140; -135.025; -549.000; -530.000
863.388; -152.150; -815.000; -759.000
863.635; -123.825; -642.000; -601.000
863.883;  -18.950;  231.000;  190.000
864.131;  -95.000; -288.000; -357.000
864.378; -122.025; -675.000; -540.000
864.626; -113.800; -347.000; -415.000
864.873; -111.275; -556.000; -505.000
865.121; -141.275; -714.000; -799.000
865.368;  -38.875; -173.000;   75.000
865.616;  -41.150;  -33.000;  -40.000
865.863;  -72.250; -462.000; -506.000
866.111; -103.950; -795.000; -824.000
866.358;   33.650; -426.000; -420.000
866.605; 2423.000;  -64.000; -804.000
866.853; 2686.550; -621.000; -537.000
867.100;  -19.475; -728.000; -775.000
867.347;  -92.975; -672.000; -611.000
867.594;  -93.250; -740.000; -714.000
867.841;   76.575;   97.000;   17.000
868.089; -153.075; -746.000; -698.000
868.336; -105.625; -477.000; -420.000
868.583; -141.775; -637.000; -741.000
868.830;  -57.875; -131.000; -170.000
869.077; -170.550; -859.000; -787.000
869.324; -114.475; -502.000; -458.000
869.571; -143.950; -398.000; -430.000
869.818; -126.850; -485.000; -439.000
870.065; -118.850; -439.000; -513.000
870.311; -104.975; -456.000; -542.000
870.558; -118.650; -332.000; -311.000
870.805; -108.775; -320.000; -384.000
871.052; -128.275; -494.000; -369.000
871.298;  -57.625; -204.000; -131.000
871.545;  -72.425; -151.000; -185.000
871.792;  -81.000; -173.000; -222.000
872.038;  -86.900;   43.000; -126.000
872.285; -122.700; -496.000; -387.000
872.532; -109.225; -357.000; -387.000
872.778;    9.175;  556.000;  403.000
873.025;  -97.050; -384.000; -359.000
873.271;   33.800;  501.000;  578.000
873.517;  -46.450; -133.000; -209.000
873.764;  -36.575; -193.000;  -80.000
874.010;  -72.700; -143.000; -230.000
874.257;  -41.350;  123.000;   90.000
874.503; -130.475; -579.000; -479.000
874.749;  -84.000;   31.000;  275.000
874.995;  -64.975;  -80.000;  -20.000
875.242; -122.950; -540.000; -478.000
875.488; -117.525; -414.000; -439.000
875.734;  -61.525; -106.000; -234.000
875.980;  103.300; -872.000;-1032.000
876.226;  308.775; -157.000; -255.000
876.472;  -18.900;  343.000;  237.000
876.718;  -41.575;  184.000;  158.000
876.964;  -49.600;   56.000;   55.000
877.210; -142.475; -547.000; -677.000
877.456; -127.625; -630.000; -557.000
877.702; -170.675; -821.000; -832.000
877.948; -121.025; -377.000; -497.000
878.193;   18.825;  361.000;  255.000
878.439; -105.700; -487.000; -472.000
878.685;  -89.475; -272.000; -343.000
878.931; -131.975; -618.000; -676.000
879.176;  -84.775; -201.000; -201.000
879.422; -179.300; -933.000; -820.000
879.668;   48.450;   10.000;   79.000
879.913;  123.850;   53.000;  137.000
880.159;  -60.300; -112.000;  -17.000
880.404;  -64.725; -152.000; -162.000
880.650;  -36.925;   91.000;  141.000
880.895; -170.625; -670.000; -710.000
881.141; -109.150; -454.000; -428.000
881.386; -157.200; -503.000; -658.000
881.631;  -80.850; -311.000; -166.000
881.877;  -38.725;  112.000;  -13.000
882.122; -135.975; -684.000; -600.000
882.367;  -93.225; -136.000; -186.000
882.612;  -79.925;  -80.000; -176.000
882.858; -178.400; -877.000; -823.000
883.103; -103.825; -297.000; -267.000
883.348; -150.950; -759.000; -852.000
883.593; -131.650; -677.000; -602.000
883.838;  -64.725; -311.000;  -24.000
884.083;   32.800;  353.000;  288.000
884.328;  -98.600; -564.000; -545.000
884.573;  -65.325; -196.000; -143.000
884.818;  144.125; -694.000; -531.000
885.063;  162.125; -348.000; -315.000
885.308;  -99.125; -475.000; -398.000
885.553;    0.600;  245.000;  325.000
885.797; -139.425; -545.000; -615.000
886.042;  -56.925;    8.000;   58.000
886.287;  -97.225; -253.000; -211.000
886.532;  -51.075;   26.000;  204.000
886.776; -114.575; -407.000; -525.000
887.021; -132.575; -621.000; -574.000
887.265; -146.725; -685.000; -689.000
887.510; -133.075; -557.000; -496.000
887.755;  -88.475; -194.000; -164.000
887.999; -133.850; -552.000; -575.000
888.244;  -62.025;  -58.000;  161.000
888.488;    4.450;  371.000;  393.000
888.732; -127.175; -368.000; -520.000
888.977; -126.050; -622.000; -567.000
889.221; -153.000; -683.000; -659.000
889.465; -123.250; -422.000; -566.000
889.710;  -98.100;  -56.000; -299.000
889.954;   -9.800;  579.000;  467.000
890.198; -151.625; -584.000; -707.000
890.442; -145.725; -716.000; -712.000
890.687; -159.850; -800.000; -753.000
890.931;  -99.825; -273.000; -210.000
891.175; -136.950; -502.000; -500.000
891.419;  -76.800; -105.000; -110.000
891.663;  -87.575; -239.000; -112.000
891.907; -167.300; -801.000; -545.000
892.151; -178.150; -920.000; -815.000
892.395; -106.950; -274.000; -387.000
892.638;  -25.400;  408.000;  291.000
892.882; -183.050; -780.000; -867.000
893.126;   21.050;  758.000;  558.000
893.370;  -91.025; -167.000; -168.000
893.614; -148.050; -714.000; -715.000
893.857;  -96.175; -183.000; -197.000
894.101; -137.825; -527.000; -631.000
894.345;  -57.525;  300.000;  150.000
894.588;   10.050;  569.000;  380.000
894.832;  -78.925; -178.000;  -84.000
895.075;  -87.550;   15.000;  -92.000
895.319; -134.800; -552.000; -420.000
895.563; -118.725; -413.000; -353.000
895.806; -154.325; -628.000; -741.000
896.049;  -60.350; -576.000; -368.000
896.293;   71.450;  527.000;  405.000
896.536;  -89.325; -465.000; -468.000
896.779;  -53.650; -149.000;   -1.000
897.023; -151.200; -751.000; -714.000
897.266;  -18.900;  325.000;  269.000
897.509; -180.650; -900.000; -901.000
897.752;  -56.425;  149.000;  171.000
897.996; -179.550; -972.000; -864.000
898.239;  -45.100;  168.000;  102.000
898.482; -133.500; -431.000; -453.000
898.725;  -35.575;  101.000;   53.000
898.968; -165.300; -609.000; -744.000
899.211; -104.875; -513.000; -361.000
899.454; -119.350; -633.000; -539.000
899.697;  -69.225;   90.000;  -43.000
899.940; -176.175; -761.000; -757.000
900.182; -106.800; -335.000; -405.000
900.425;  -94.875; -150.000; -298.000
900.668;  -24.650;  491.000;  350.000
900.911; -117.050; -292.000; -345.000
901.154;  -48.675;  141.000;   -3.000
901.396; -141.900; -407.000; -412.000
901.639; -137.825; -430.000; -496.000
901.882; -185.650; -790.000; -809.000
902.124;  -77.300;  -29.000; -143.000
902.367; -122.150; -315.000; -361.000
902.609; -143.225; -476.000; -453.000
902.852;  -95.900; -108.000; -260.000
903.094; -121.825; -458.000; -337.000
903.337;  -63.900;  -26.000;   53.000
903.579; -118.100; -228.000; -441.000
903.821; -162.475; -597.000; -744.000
904.064;  -58.225;   85.000;  127.000
904.306;  -91.450; -126.000; -166.000
904.548; -106.475; -152.000; -366.000
904.790; -111.225; -195.000; -340.000
905.033; -135.575; -625.000; -577.000
905.275; -137.150; -513.000; -524.000
905.517;   38.100;  468.000;  256.000
905.759;  -64.200; -667.000; -761.000
906.001;  -96.175; -322.000; -369.000
906.243;  -68.100; -162.000; -224.000
906.485;   82.400; -265.000; -207.000
906.727;   66.250; -499.000; -542.000
906.969;  -42.625;  -30.000; -135.000
907.211;   85.725; -316.000; -382.000
907.453;  227.300; -188.000; -237.000
907.695;   -7.275; -158.000; -385.000
907.936;   40.675;  818.000;  706.000
908.178;  -63.850;   92.000; -135.000
908.420;  -66.125; -111.000; -162.000
908.662; -134.325; -633.000; -682.000
908.903;  -86.750; -208.000; -123.000
909.145;  -84.150; -240.000; -305.000
909.386;    3.575;  315.000;  280.000
909.628;   44.100;  363.000;  397.000
909.870;    0.050;   29.000;  264.000
910.111;  -94.450; -809.000; -949.000
910.353;    8.225; -123.000; -161.000
910.594;  -11.525; -574.000; -606.000
910.835;   73.825; -265.000; -326.000
911.077;  139.075; -503.000; -604.000
911.318;  265.925; -505.000; -471.000
911.559;  437.650; -577.000; -880.000
911.801; 1279.250; -284.000; -280.000
912.042; 9821.025;  -50.000; -159.000
912.283;26600.725;  404.000;  371.000
912.524; 4307.125; -396.000; -457.000
912.765;  483.400; -193.000;   79.000
913.006;  216.500; -307.000; -338.000
913.247;   57.800; -270.000; -290.000
913.488;   -6.800;  -43.000;   30.000
913.729;  -84.350; -373.000; -373.000
913.970;  -71.850;  -96.000; -292.000
914.211;  -61.850; -160.000; -198.000
914.452;  -73.875; -118.000;  -11.000
914.693;    7.050;  510.000;  592.000
914.934;    8.950;  510.000;  440.000
915.175;  -76.900;   53.000;  -95.000
915.415;  -89.275; -137.000;   27.000
915.656;  -53.425;  -28.000;  192.000
915.897;  -91.075; -252.000;  -82.000
916.137;  -73.625;   74.000;   -9.000
916.378; -123.650; -573.000; -517.000
916.619;  -71.300; -159.000;  -63.000
916.859;  -22.775;  303.000;  330.000
917.100;  130.725; 1655.000; 1070.000
917.340;   54.700;  930.000;  728.000
917.581;   41.925;  965.000;  789.000
917.821;  -44.375; -171.000;  143.000
918.061;   11.275; -199.000;  -72.000
918.302;  -27.025; -152.000; -211.000
918.542;  -28.175;  -22.000;    3.000
918.782;   28.550;  369.000;  377.000
919.023;  109.050;  360.000;  427.000
919.263; 1681.250; 8131.000;  202.000
919.503; 1043.350; -137.000;  -54.000
919.743;  568.275;  390.000;  266.000
919.983;  233.100; -134.000;  -26.000
920.223;   82.300;  135.000;   14.000
920.463;  139.575;  631.000;  554.000
920.703;  128.175;   84.000;   39.000
920.943;  189.225; -110.000;   90.000
921.183;  231.175; -414.000; -405.000
921.423;  528.750;  307.000;  546.000
921.663;  743.325; -174.000; -257.000
921.903; 1571.125;  237.000;  173.000
922.143; 8650.650;  372.000;  389.000
922.383;34114.475;  158.000;  115.000
922.622;12244.950; -120.000;  -15.000
922.862; 1307.300;  796.000;  785.000
923.102;  475.950;  -51.000;   33.000
923.341;  190.575;   59.000;   74.000
923.581;  103.050;  450.000;  360.000
923.821;   17.650;  301.000;  398.000
924.060;    1.075;  351.000;  193.000
924.300;  -56.025;  -16.000; -128.000
924.539;  -18.875;  584.000;  473.000
924.779;    8.200;  812.000;  597.000
925.018;  -48.625;  247.000;  353.000
925.257;    5.250;  595.000;  666.000
925.497;  -43.750;  447.000;  412.000
925.736;  -76.550;  -35.000;  102.000
925.975;   -1.625;  687.000;  669.000
926.214;   28.425;  907.000;  850.000
926.454;   18.300;  706.000;  757.000
926.693;  -48.925;  419.000;  543.000
926.932;   34.450; 1021.000;  825.000
927.171;   64.850; 1107.000; 1044.000
927.410;   55.400; 1144.000;  967.000
927.649;   30.650;  924.000;  742.000
927.888;   -3.075;  590.000;  564.000
928.127;   -7.750;  680.000;  678.000
928.366;   10.375;  842.000;  826.000
928.605;   45.275;  831.000;  737.000
928.844;  210.450; 1451.000; 1393.000
929.083;  567.150;  770.000;  613.000
929.321;  325.800; 1335.000; 1359.000
929.560;   81.625; 1158.000; 1122.000
929.799;  -39.225;  574.000;  475.000
930.038;   91.425; 1025.000; 1394.000
930.276;  -37.900;  334.000;  397.000
930.515;    4.325;  827.000;  681.000
930.753;  -31.000;  614.000;  589.000
930.992;  -15.325;  664.000;  717.000
931.230;   -6.625;  847.000;  847.000
931.469;  178.525; 2162.000;  892.000
931.707;   63.350;  840.000;  751.000
931.946;   66.350; 1278.000; 1344.000
932.184;   56.775; 1437.000; 1175.000
932.423;   53.300; 1265.000;  963.000
932.661;   79.925; 1296.000; 1428.000
932.899;   23.350;  987.000;  821.000
933.137;    9.475;  754.000;  564.000
933.376;  136.200; 1664.000; 1335.000
933.614;  153.125; 1759.000; 1196.000
933.852;   57.950; 1357.000; 1171.000
934.090;  139.250; 1722.000; 1747.000
934.328;  115.875; 1252.000; 1457.000
934.566;   93.325; 1431.000; 1110.000
934.804;  157.575; 1263.000; 1309.000
935.042;  501.925; 1861.000; 1850.000
935.280; 2000.425; 2088.000; 2063.000
935.518; 1977.725; 2113.000; 2007.000
935.756;  421.450; 2481.000; 2316.000
935.994;  174.625; 1808.000; 1751.000
936.231;  344.475; 2890.000; 2950.000
936.469;  196.100; 2367.000; 2378.000
936.707;  171.125; 2220.000; 2167.000
936.945;  236.925; 2825.000; 2882.000
937.182;  189.125; 2679.000; 2741.000
937.420;  288.650; 3602.000; 3031.000
937.657;  391.150; 3365.000; 3478.000
937.895;  361.775; 3331.000; 3488.000
938.133;  307.425; 3540.000; 3528.000
938.370;  344.225; 3896.000; 4191.000
938.607;  389.625; 4488.000; 4205.000
938.845;  537.025; 5587.000; 5549.000
939.082;  498.575; 5387.000; 5177.000
939.320;  529.750; 5799.000; 5728.000
939.557;  635.350; 6549.000; 6491.000
939.794;  706.875; 7285.000; 7097.000
940.031;  902.325; 8421.000; 8368.000
940.269; 1092.550; 9552.000; 9107.000
940.506; 1115.700;10901.000;10507.000

