
Integration time [ms]: 200.000
Averaging Nr. [scans]: 10
Smoothing Nr. [pixels]: 0
Data measured with spectrometer [name]: 2101013U2
Wave   ;Sample   ;Dark     ;Reference
[nm]   ;[counts] ;[counts] ;[counts] 

394.013;  -93.407; -450.257; -315.536
394.305; -113.707; -461.258; -419.536
394.596; -178.116; -676.269; -527.514
394.887; -219.215; -796.268; -654.518
395.178;   21.688;  145.736;   11.476
395.470; -100.411; -210.263; -356.526
395.761;  116.987;  305.734;  394.479
396.052; -117.828; -545.284; -306.489
396.343; -135.521; -557.276; -454.503
396.634;  -93.324; -200.279; -290.497
396.926; -155.115; -618.268; -565.517
397.217;  -51.321;   11.725;  -17.504
397.508; -101.419; -366.273; -154.507
397.799; -169.724; -555.279; -571.497
398.090; -257.625; -973.280; -902.495
398.381;  -61.135;   11.708;  -11.473
398.672; -165.534; -585.292; -742.473
398.963; -122.324; -348.279; -373.498
399.254;   -6.134;   54.709; -209.475
399.545; -269.214;-1017.266; -883.520
399.836; -106.822; -407.277; -343.501
400.127;  -45.337; -205.295; -209.468
400.418;  -75.120; -423.274; -392.506
400.709;  -93.326; -359.281; -333.493
401.000;  -30.933; -268.291; -309.476
401.290;   71.757;  225.698;  115.545
401.581;  -22.129; -166.286; -228.485
401.872; -151.339; -542.298; -486.462
402.163;  -68.337; -313.296; -252.467
402.454;  -55.534; -123.291; -163.475
402.744; -225.438; -844.297; -813.465
403.035;  -81.735; -226.293;  -86.471
403.326; -105.234; -366.292; -384.474
403.617;   44.760;  204.701;  165.539
403.907; -146.227; -593.283; -679.490
404.198; -165.647; -545.307; -599.446
404.489; -173.427; -618.283; -588.491
404.779; -189.542; -618.302; -660.456
405.070;  -16.744;  -67.304; -174.451
405.360;  -30.535; -259.293; -238.472
405.651;   77.659;  125.699;   98.542
405.942;   36.870;  209.714;  127.516
406.232; -139.428; -432.285; -413.487
406.523;  216.364;  641.706;  758.530
406.813; -158.630; -579.286; -644.484
407.104;   40.265;  261.708;  144.527
407.394; -183.940; -604.299; -591.462
407.685;   64.072;  336.715;  222.513
407.975; -125.127; -400.283; -382.490
408.265;  -17.032; -134.289; -190.478
408.556; -136.234; -472.291; -459.475
408.846;  140.764;  474.706;  429.530
409.137;   -5.631;   -1.288; -216.480
409.427;  -86.428; -193.285; -271.487
409.717; -200.819; -776.273; -692.508
410.007;  -26.029;    4.715; -170.486
410.298;  -95.036; -360.295; -342.469
410.588; -145.029; -495.285; -510.486
410.878; -222.330; -792.287; -873.482
411.168; -116.539; -481.298; -478.463
411.459;  -70.227; -295.283; -242.489
411.749; -172.334; -609.292; -507.474
412.039; -198.532; -755.289; -386.480
412.329;   26.977;   40.722;  132.501
412.619;  -61.229;  -62.286; -148.485
412.909;  160.068;  639.711;  594.521
413.199;  -55.425; -130.280; -251.495
413.490;  148.467;  521.710;  352.523
413.780; -256.624;-1013.279; -913.496
414.070;    9.679;  -46.276;  235.497
414.360; -184.323; -729.278; -666.498
414.650; -171.731; -726.288; -688.482
414.940; -125.024; -538.280; -441.496
415.230;    4.269;   50.712;   74.519
415.520;   46.084;  155.730;   66.486
415.809;  -62.626; -305.281; -125.493
416.099; -136.122; -388.277; -229.501
416.389;  108.580;  435.726;  236.494
416.679;   61.489;   91.738;   85.473
416.969; -146.230; -527.287; -503.483
417.259;   81.576;  341.721;  171.503
417.549;   83.274;  522.718;  318.508
417.838;  -35.515; -205.268; -147.518
418.128;  164.168;  650.710;  492.522
418.418; -172.719; -491.272; -579.509
418.708;   -5.620;    9.726;  -48.506
418.997; -122.821; -474.275; -480.505
419.287; -259.019; -733.273; -790.507
419.577;   -3.727; -160.283; -123.489
419.866; -147.922; -588.277; -498.501
420.156;  -27.417; -242.270;  -55.513
420.446;  -20.711; -112.263;  -26.526
420.735; -158.117; -376.271; -446.512
421.025;  555.877; 1830.722;  315.502
421.314;  -29.817; -203.271; -226.512
421.604;   44.585;   89.732;  233.484
421.893; -195.718; -705.271; -602.511
422.183; -161.811; -487.263; -461.526
422.472;  -14.518;  -36.271; -107.511
422.762;  -89.913; -416.266; -379.521
423.051; -269.021; -916.276; -916.503
423.341; -150.119; -491.273; -439.507
423.630;  -45.113; -121.265;   15.477
423.919;    5.379;   58.725;   49.495
424.209;  -35.211;  -31.263;   56.473
424.498;   11.585;   68.732;  161.483
424.787; -144.314; -535.267; -601.518
425.077;    6.687;   34.735;   29.478
425.366; -205.310; -734.262; -744.528
425.655;  167.881;  639.727;  259.493
425.945;  -75.398; -313.247; -268.554
426.234;   -1.308;  117.741;  300.467
426.523;  -81.308;  -86.259; -350.534
426.812;   19.387;  107.734;  159.480
427.101;   11.084; -127.269; -323.515
427.390;  -10.316;  -55.270;  -86.514
427.680; -129.006; -624.257; -411.538
427.969;  -96.505; -330.255; -301.540
428.258; -153.707; -385.257; -477.536
428.547;  117.382;  449.728;  397.490
428.836; -128.803; -421.253; -398.543
429.125;  -67.207; -199.259;  -72.534
429.414; -125.901; -330.251; -294.548
429.703; -100.201; -231.251; -213.548
429.992; -238.701; -938.250; -828.549
430.281; -134.012; -397.264; -331.524
430.570;  -12.202;  -21.252;   32.454
430.859;   50.692;  279.741;  352.466
431.148;  147.201;  636.752;  631.446
431.437;   91.898;  391.748;  367.454
431.725; -159.206; -544.257; -481.536
432.014; -269.603; -845.253; -756.545
432.303;  -81.792; -149.239; -105.569
432.592; -112.611; -460.263; -178.525
432.881; -179.699; -601.248; -437.554
433.169;  -67.805; -343.255;  -61.540
433.458;  115.711;  445.765;  540.424
433.747; -140.210; -397.261; -289.529
434.036;  -90.894; -275.242; -280.564
434.324; -136.400; -395.249; -379.551
434.613;   19.305;   40.757;  159.437
434.902;   50.607;  333.760;  439.433
435.190;   34.408;   75.761;  295.431
435.479;  -53.896;  -52.245;   83.441
435.767; -140.196; -411.244; -427.561
436.056; -127.794; -340.242; -294.563
436.345; -143.393; -372.240; -223.568
436.633;   59.500;   60.750;  383.450
436.922;   84.508;  208.760;  414.432
437.210;  -73.990; -194.236;    1.426
437.499; -198.089; -583.235; -432.576
437.787;  -82.690; -339.236;  -10.574
438.075;   24.809;   56.761;  162.430
438.364;  -16.791;  -44.238;  250.429
438.652; -127.382; -286.226; -138.592
438.941;  -28.385;    3.770;  269.415
439.229; -194.402; -665.252; -466.545
439.517;  -94.788; -160.234;  -85.577
439.806; -153.380; -501.225; -290.595
440.094;   96.913;  377.766;  650.421
440.382; -185.387; -653.233; -302.580
440.670; -139.489; -361.235; -285.576
440.959; -145.779; -347.223; -170.599
441.247;  -68.484; -151.229; -109.587
441.535;  -71.488; -266.235;   31.423
441.823; -164.988; -497.234; -305.578
442.111;   56.317;  173.771;  327.412
442.400; -183.596; -628.245; -335.559
442.688;  -47.787; -111.234; -620.579
442.976; -245.671; -786.213; -450.617
443.264; -156.380; -324.224; -364.597
443.552;  -79.582; -258.226;   51.408
443.840;  163.912;  602.765;  876.423
444.128;   72.413;  265.767;  269.420
444.416; -188.083; -694.228; -312.588
444.704; -122.876; -465.219;  -92.605
444.992;  -33.381;   -0.226;  240.407
445.280; -143.785; -517.230;  -94.585
445.568; -199.070; -694.212; -396.618
445.856;  -31.977; -174.221;  357.398
446.143;  -61.876;  -54.220;   -7.604
446.431;   24.517;  -25.228;  625.411
446.719;  156.126;  489.783;  675.391
447.007;  139.515;  481.769;  705.416
447.295;  150.621;  597.777;  871.402
447.583; -122.884; -464.229;  -34.587
447.870; -144.478; -434.221; -202.601
448.158;  -43.985; -104.230;  129.415
448.446; -222.876; -800.219; -338.604
448.733;  -78.679;   13.776;  269.403
449.021;    0.730;   60.788;  341.382
449.309;  -54.569; -296.210;  208.379
449.596;   22.926;  128.783;   59.392
449.884; -174.378; -571.222; -325.600
450.172; -246.882; -756.227; -406.590
450.459;  120.628;  645.786;  780.387
450.747; -157.175; -411.218; -147.608
451.034;  131.417;  493.772;  889.411
451.322; -132.072; -413.214; -170.614
451.609;   50.721;  292.777;  508.403
451.897; -150.263; -550.203; -183.634
452.184; -208.379; -622.223; -400.598
452.472;  -15.567;   97.792;  269.375
452.759;  127.624;  512.781;  864.395
453.047; -128.370; -407.212; -125.617
453.334; -193.375; -732.219; -216.606
453.621; -162.772; -438.214; -161.615
453.909;  -14.164;   13.796;  384.368
454.196;  -86.260; -299.199; -123.641
454.483;   14.638;  317.798;  540.364
454.771;  -59.467; -215.208;  196.374
455.058;  -92.366; -316.207;  102.374
455.345;   23.845;   71.807;  344.347
455.632;  -57.066; -128.207;  235.373
455.919;  -31.858;  -82.196;  182.354
456.207; -259.459; -774.198; -450.642
456.494; -165.761; -475.200;  -66.639
456.781; -149.662; -399.202; -198.635
457.068;  -84.265; -253.206;  -29.628
457.355; -185.865; -698.206; -401.629
457.642; -157.565; -552.205; -290.630
457.929; -243.055; -778.194; -417.651
458.216; -216.570; -575.212; -354.617
458.503;  -92.455; -173.193;  -19.652
458.790; -232.167; -864.208; -630.625
459.077;  -70.662;  -77.202;  110.364
459.364; -116.856; -350.195; -210.649
459.651;   14.634;  -46.206;  220.372
459.938; -251.068; -864.209; -665.623
460.225;  -25.362;  132.799;  276.363
460.512; -264.958; -836.197; -688.645
460.799;   -6.775;  -32.218;  320.392
461.086; -133.360; -370.200; -251.640
461.372; -180.859; -509.198; -279.642
461.659;  -51.258; -165.196;  108.354
461.946; -117.755; -445.193;  -54.651
462.233;  262.239;  842.800;  888.361
462.519; -262.661; -814.201; -464.639
462.806; -233.958; -768.197; -497.645
463.093; -125.953; -445.191;  -66.656
463.380; -273.850; -920.186; -824.664
463.666;  -71.258; -259.197;  -18.646
463.953; -110.357; -406.195; -243.648
464.239; -108.557; -173.195;  -77.648
464.526;  124.844;  413.806;  743.350
464.813; -159.052; -565.190; -304.658
465.099;  143.445;  606.807;  607.348
465.386;  204.345;  903.807;  921.348
465.672; -191.858; -694.197; -522.645
465.959; -204.151; -598.188; -520.662
466.245; -154.655; -468.193; -359.652
466.532;  -68.857; -109.195;   63.352
466.818; -135.650; -357.186; -216.664
467.104; -152.646; -488.182; -415.672
467.391; -186.252; -628.189; -459.658
467.677;  -83.449; -289.186;    9.335
467.964; -203.751; -682.189; -471.660
468.250; -106.149; -331.186; -160.665
468.536;  -35.752;   90.811;  180.341
468.822; -242.948; -821.184; -574.668
469.109;  121.162;  351.827;  471.311
469.395;  169.446;  729.808;  787.346
469.681;  -21.852;   46.811;  156.341
469.967; -205.651; -699.188; -382.660
470.254;  -90.851; -494.188; -306.662
470.540; -207.058; -601.196; -476.646
470.826; -162.145; -488.181; -397.675
471.112;   36.752;  288.816;  113.331
471.398;  -75.447; -253.183;  -58.670
471.684; -195.042; -626.177; -447.680
471.970; -287.445; -918.180; -981.675
472.256; -148.754; -521.192; -441.654
472.542; -159.837; -499.171; -434.691
472.828; -223.346; -743.182; -607.672
473.114; -145.734; -380.166; -283.700
473.400; -168.541; -504.175; -293.684
473.686; -128.033; -452.166; -400.701
473.972;  -73.739; -230.174; -131.687
474.258; -268.938; -925.173; -843.689
474.544;  -65.043; -183.178;   -2.679
474.830;  -52.141;  -65.175;   45.316
475.116;  -98.752; -123.190; -196.658
475.401; -158.144; -558.180; -467.676
475.687; -235.744; -725.180; -718.676
475.973; -232.946; -673.181; -770.673
476.259;  191.660;  736.825;  764.315
476.544; -176.942; -539.176; -437.682
476.830; -152.538; -398.172; -322.690
477.116; -124.142; -430.177; -336.682
477.401;  107.456;  346.820;  358.324
477.687; -118.641; -289.175; -405.684
477.973;  -14.245;   21.819;   28.326
478.258; -123.831; -448.163; -348.706
478.544;  -31.248;   21.815;   61.334
478.829; -237.637; -818.171; -738.692
479.115; -196.838; -749.172; -651.690
479.401; -124.640; -444.174; -449.686
479.686;  -71.244; -253.180;  -74.676
479.972; -250.543; -886.178; -776.680
480.257;  -91.733; -258.166;  -65.700
480.542; -165.637; -614.170; -469.693
480.828;  340.059; 1288.824; 1392.317
481.113; -132.641; -464.176; -426.683
481.399;  -95.329; -236.161; -202.711
481.684; -170.933; -620.166; -462.700
481.969;  -25.528; -158.159;  -73.713
482.255; -142.236; -439.169; -285.695
482.540; -167.943; -569.178; -441.680
482.825; -146.850; -395.187; -404.663
483.110;  -23.135;  -85.169; -105.696
483.396; -191.626; -840.157; -652.718
483.681;  143.061;  543.826;  730.313
483.966; -226.528; -696.160; -700.712
484.251; -135.439; -404.174; -310.687
484.536; -159.132; -356.165; -378.703
484.822; -106.339; -205.173; -218.687
485.107; -159.222; -599.152; -502.726
485.392;  146.068;  662.836;  541.296
485.677;   20.366;  354.832;  163.302
485.962;   50.474;  160.843;  270.283
486.247;   -1.530;  -14.162;   -8.707
486.532; -128.833; -178.166; -325.701
486.817;   42.971;  381.839;  431.291
487.102; -201.524; -453.154; -514.722
487.387; -189.126; -637.156; -652.718
487.672;  -68.031; -154.164;  -38.705
487.957;  -89.429; -394.160; -286.711
488.241; -113.221; -290.150; -314.729
488.526; -107.722; -280.152; -148.726
488.811; -272.142; -881.177; -818.680
489.096; -245.523; -666.154; -702.723
489.381;  -35.822;    3.847;  162.275
489.666; -151.729; -428.161; -510.710
489.950;  167.977;  558.846;  627.277
490.235; -178.421; -480.151; -458.728
490.520; -245.129; -756.161; -723.710
490.804; -234.425; -827.156; -736.719
491.089; -145.319; -469.149; -299.732
491.374;  -43.832; -132.164;  -75.704
491.658; -241.118; -817.147; -717.735
491.943; -186.122; -657.152; -609.727
492.227;  -64.424; -178.155;  -38.721
492.512; -112.826; -294.157; -341.717
492.797; -271.520; -713.149; -716.731
493.081; -206.118; -588.147; -598.735
493.366; -219.529; -751.161; -635.711
493.650;  229.087;  831.859;  917.254
493.935; -200.318; -648.147; -447.734
494.219; -204.914; -778.142; -687.743
494.503; -227.220; -585.150; -487.730
494.788;  -34.327;   46.842;   74.285
495.072;   45.179;  184.850;  434.271
495.356; -107.319; -463.148; -343.733
495.641; -248.817; -812.146; -736.736
495.925; -261.025; -976.156; -903.719
496.209; -147.819; -599.149; -451.732
496.494; -206.814; -763.142; -544.744
496.778; -106.324; -364.154; -360.722
497.062; -228.225; -819.156; -627.719
497.346; -249.629; -869.160; -640.711
497.631;  140.281;  580.852;  560.266
497.915;  -29.416;  -64.145;  175.261
498.199; -118.226; -341.157; -277.718
498.483; -159.922; -562.152; -508.725
498.767;   70.880;  301.850;  300.271
499.051;  -27.319; -126.149; -100.732
499.335; -220.120; -693.149; -739.731
499.619; -167.604; -381.129; -423.767
499.903;  -86.624; -272.155;  -65.721
500.187; -178.923; -588.153; -316.724
500.471; -252.422; -796.152; -595.727
500.755;  -26.029;   62.839;  -96.710
501.039; -122.624; -270.155; -357.721
501.323;   13.187;  -21.141;  264.254
501.607; -117.931; -447.163; -503.706
501.891; -187.226; -607.156; -512.718
502.174; -198.015; -726.144; -585.741
502.458;   -9.621;   89.849;  370.273
502.742;  -70.611; -180.138; -191.751
503.026; -133.218; -412.147; -254.734
503.310; -147.628; -437.159; -375.713
503.593; -110.918; -464.147; -325.735
503.877; -100.607; -232.133; -156.760
504.161;  -67.123;    2.847;  -50.724
504.444; -240.027; -841.158; -710.716
504.728; -208.932; -487.164; -522.704
505.012;  -45.521; -257.150;  -76.729
505.295; -121.029; -417.161; -212.711
505.579; -120.425; -256.156; -496.719
505.862; -194.217; -555.145; -333.738
506.146; -201.728; -681.159; -758.714
506.429;  103.673;  568.841;  461.286
506.713; -206.021; -732.151; -667.728
506.996;    2.276;   90.846;  295.278
507.280; -183.932; -633.165; -474.703
507.563; -169.724; -469.155; -261.721
507.847; -149.323; -423.153; -112.724
508.130; -227.529; -665.161; -456.711
508.413; -170.834; -758.167; -577.700
508.697;  -52.834; -151.167;   12.300
508.980; -128.023; -422.153; -312.724
509.263; -161.925; -466.155; -450.720
509.547;  -49.621; -124.150;   82.271
509.830;  -46.829; -172.160;  140.289
510.113;   22.775;  128.844;  298.281
510.396; -155.422; -530.152; -300.725
510.680; -254.517; -818.145; -812.738
510.963;   19.377;  184.846;  180.277
511.246; -183.620; -493.150; -357.730
511.529; -115.716; -482.145;  -83.739
511.812;  -78.107; -250.134;   10.241
512.095; -206.621; -740.151; -396.728
512.378; -128.718; -317.147; -245.736
512.661; -218.610; -703.137; -623.753
512.944; -233.214; -750.142; -637.744
513.227; -104.310; -170.137; -171.752
513.510; -167.415; -479.144; -671.741
513.793; -190.213; -485.140; -435.747
514.076;  -36.602;  -43.127;  -39.771
514.359;  -79.919; -294.149; -135.732
514.642; -172.914; -442.142; -567.744
514.925;  106.587;  581.860;  561.253
515.208; -153.108; -498.134; -443.758
515.491;  -88.006; -276.133; -182.761
515.773; -181.415; -410.143; -337.742
516.056;   52.291;  249.864;  409.246
516.339; -256.509; -754.136; -652.755
516.622; -179.720; -518.150; -488.730
516.904;  252.686;  882.857;  975.257
517.187; -198.110; -730.138; -523.752
517.470; -156.214; -568.143; -510.743
517.752; -186.909; -624.136; -470.756
518.035; -237.112; -708.139; -725.749
518.318; -276.709; -799.136; -744.755
518.600; -112.406; -300.132; -325.762
518.883;  -10.814;  310.858;   88.256
519.165; -181.811; -585.138; -426.751
519.448;  -49.106;  -61.132;  -19.762
519.730; -207.601; -573.126; -415.773
520.013;  146.493;  588.867;  664.240
520.295;  -70.907;  -94.134;  -15.759
520.578; -120.405; -335.131; -305.764
520.860;  -73.306; -254.132;   56.238
521.143; -261.709; -763.135; -584.756
521.425; -105.200; -251.125; -279.775
521.707; -150.402; -622.127; -380.771
521.990;  -11.802; -199.127;  167.229
522.272;  -85.712; -116.140;   -4.748
522.554;  -69.515; -237.143; -157.742
522.836;  -51.407;  -24.134;   99.241
523.119; -151.418; -496.148; -189.734
523.401; -156.904; -448.130; -314.766
523.683; -237.710; -865.137; -693.753
523.965;   37.689;  408.862;  260.248
524.247;  -25.398;   54.878;  170.220
524.529; -163.007; -451.134; -367.759
524.812;   -7.304;   -3.130;  191.234
525.094; -252.211; -773.138; -631.751
525.376;  -34.699; -143.124;   78.223
525.658; -148.009; -441.136; -339.754
525.940; -292.805; -805.131; -671.764
526.222;  -94.409; -188.136;  -88.755
526.504;  -79.605; -190.131;   32.237
526.786; -311.907; -960.133; -647.760
527.068;  -70.799; -124.123;  -67.778
527.349; -294.710; -865.137; -774.754
527.631;  -48.806; -137.132;   22.238
527.913; -226.002; -664.127; -450.771
528.195; -237.901; -761.125; -639.774
528.477;  -81.608;  -93.134;  -30.758
528.759; -213.904; -648.130; -522.766
529.040; -198.899; -569.123; -293.778
529.322;  -91.900; -235.125;  -10.774
529.604;  -31.904;  -47.130;   93.233
529.886; -124.701; -546.126; -302.773
530.167;  -11.405;  232.870;  192.235
530.449;   -7.118;    1.853;   63.265
530.731; -229.398; -572.122; -459.779
531.012; -160.996; -513.120; -216.784
531.294;  -70.493; -118.116;  -43.792
531.575;   78.100;  290.875;  538.225
531.857; -193.208; -548.135; -266.757
532.138;   -2.813; -113.141;   40.254
532.420;    1.592;  294.865;  403.244
532.701; -253.807; -722.133; -751.760
532.983;   37.994;  232.867;  182.239
533.264;  -61.201; -243.126;  175.228
533.546; -179.209; -491.136; -508.755
533.827;  -35.507;  173.867;   -1.759
534.109; -145.308; -352.135;  -80.757
534.390; -252.006; -725.132; -582.762
534.671;  -94.109; -270.135;  -82.756
534.953; -258.899; -751.123; -611.779
535.234; -148.294; -426.117; -255.789
535.515; -268.496; -891.119; -735.785
535.796; -138.102; -431.128; -193.770
536.078; -323.399;-1050.124; -904.777
536.359;  -87.399;  -22.123;    3.221
536.640; -137.401; -480.125; -197.774
536.921;   -3.603;  225.871;  143.232
537.202;  -78.011;  -87.138;  -16.751
537.483;   36.695;  251.869;  377.236
537.764;  -11.505;   17.870;   98.235
538.045; -158.708; -543.134; -371.758
538.326; -215.703; -596.129; -447.768
538.607; -247.802; -686.127; -476.771
538.888;  -41.797;   98.879;    5.218
539.169; -233.098; -704.122; -535.781
539.450;   -5.804;  236.871;   16.233
539.731; -129.097; -361.121; -182.783
540.012;  -34.096;  199.880;  412.216
540.293;  -49.200;   82.876;  158.224
540.574; -272.591; -895.113; -717.796
540.855;    9.703;  435.879;  377.218
541.136;   14.402;   47.878;  139.220
541.416; -110.404; -161.130; -220.766
541.697; -140.005; -274.131; -170.763
541.978; -140.508; -270.135; -315.757
542.259; -150.102; -211.127; -236.771
542.539; -151.793; -191.116; -186.790
542.820;   33.700;  461.875;  480.225
543.101; -110.316;  -52.145;  -77.738
543.381; -280.402; -638.127; -591.771
543.662;  -63.402;  159.873; -254.771
543.942; -281.502; -751.127; -830.770
544.223;  -35.198;  193.878;  161.219
544.504; -119.799; -275.124; -182.777
544.784; -205.001; -592.126; -408.773
545.065; -147.893;  104.884; -254.791
545.345;  -69.696;  227.881;   14.215
545.626;  -62.991;  -14.113; -108.796
545.906;  -71.605;   77.869;   98.235
546.186; -119.801;   92.874;  -95.773
546.467; -114.499;   99.877;  -95.778
546.747;   30.307;  264.884;  327.210
547.027;  -61.299;   91.876;  111.223
547.308; -190.602; -376.127; -530.770
547.588;   32.297;  299.871;  371.232
547.868;   93.095;  458.870;  588.235
548.149;  106.208;  609.885;  593.207
548.429; -133.502; -347.127; -299.771
548.709; -204.296; -645.120; -461.784
548.989;   -7.995;   84.882;   88.213
549.269; -140.906;   10.868;  139.239
549.550;  -61.999;  215.877;  117.222
549.830; -251.389; -758.111; -556.799
550.110; -199.389; -468.110; -320.801
550.390; -130.898; -128.122;  -56.779
550.670; -292.791; -868.114; -783.795
550.950; -217.397; -509.121; -471.782
551.230;  127.703;  549.879;  460.218
551.510; -161.397; -381.121; -326.782
551.790; -104.388; -173.109; -127.803
552.070;  260.801;  940.877; 1181.223
552.350; -159.295; -492.119; -377.786
552.630;  -28.997;   -2.121;   77.219
552.909;  -22.893;  181.884;   73.209
553.189;  -79.206;  -49.132;   33.237
553.469; -231.495; -703.119; -514.786
553.749; -195.302; -469.127; -357.772
554.029;  -54.994;   33.883;  -24.790
554.308;  -92.292; -154.115;  -37.794
554.588; -132.402; -196.128; -204.770
554.868; -149.897; -366.121;  -47.782
555.147;  -78.592; -114.115;  -46.793
555.427; -151.893; -260.116; -250.792
555.707; -127.292; -284.115; -200.793
555.986; -243.889; -719.111; -538.800
556.266;  -35.493;   23.884;   72.210
556.546; -286.197; -888.121; -675.782
556.825; -234.191; -657.114; -556.794
557.105; -100.303; -125.128;   17.230
557.384;    4.807;  122.884;  187.209
557.664; -258.093; -717.116; -508.792
557.943; -213.797; -557.121; -411.782
558.222; -138.594; -345.118; -344.788
558.502;  -91.892; -116.115;  -76.793
558.781;   47.308;  194.885;  499.208
559.061; -127.094; -232.118; -227.788
559.340;  -10.594;  302.883;  353.211
559.619;  -13.893;   93.884;  148.210
559.899; -123.494; -239.117; -266.789
560.178; -214.992; -778.115; -593.793
560.457; -244.294; -623.117; -562.790
560.736; -188.489; -472.111; -482.800
561.015; -198.003; -500.128; -502.769
561.295;  -36.286;  180.893;  215.193
561.574;  -25.392;  119.885;  116.207
561.853;   21.813;  274.891;  303.197
562.132;  -82.792;  -45.114;  182.206
562.411;  123.603;  396.879;  553.219
562.690; -222.992; -592.115; -458.792
562.969;  131.510;  472.888;  630.203
563.248;  688.302; 2966.878; 2487.219
563.527;  -95.989; -290.111; -408.800
563.806; -227.202; -650.127; -521.771
564.085; -107.685; -297.105; -206.810
564.364; -208.493; -594.117; -405.790
564.643; -155.397; -276.121; -223.781
564.922;   -0.188;  221.890;  397.198
565.201; -213.888; -640.109; -700.803
565.479; -137.793; -297.115; -219.792
565.758; -291.403; -810.128; -712.770
566.037; -112.488; -155.109; -100.803
566.316; -110.593; -286.116;  -28.791
566.595;  -84.492;  -17.115;  -12.793
566.873;  128.211; -166.111;  -79.801
567.152; -218.690; -490.113; -590.797
567.431;  -52.393; -113.116;    6.210
567.709; -101.786; -344.107; -212.807
567.988; -289.992; -810.114; -769.794
568.266;  -90.392; -160.115;  -68.793
568.545; -234.780; -644.100; -514.819
568.824;   56.507;  160.885;  356.208
569.102; -146.892; -351.114; -235.794
569.381; -218.193; -492.116; -407.792
569.659; -205.991; -553.113; -553.796
569.938; -217.198; -743.122; -465.780
570.216; -101.987; -225.109; -225.804
570.494; -239.391; -632.114; -572.795
570.773;    6.003;  202.879;  114.218
571.051; -170.199; -373.123; -357.778
571.330;  -92.591; -221.113; -174.796
571.608; -116.479; -181.098; -173.823
571.886; -244.789; -671.111; -581.799
572.164; -274.697; -739.121; -621.782
572.443; -199.184; -562.105; -512.811
572.721; -142.394; -399.117; -289.790
572.999; -132.694; -280.117; -168.788
573.277;   92.615;  379.894;  620.191
573.555;  -66.685;   94.894;   37.190
573.834; -121.094;  -86.117; -114.788
574.112;  207.914;  880.893;  811.193
574.390;  -61.089; -143.111;  -96.801
574.668; -107.590;  -91.112;  -61.797
574.946; -124.985; -165.106; -187.810
575.224;  -55.888;   71.891;  -16.803
575.502; -139.893; -200.116; -204.791
575.780; -261.090; -767.112; -829.798
576.058;  421.611; 1589.889; 1004.200
576.336; -106.988; -210.110; -129.801
576.614; -203.690; -511.112; -340.798
576.891; -225.992; -711.115; -823.794
577.169; -108.287; -158.108; -285.805
577.447;   33.214;  169.893;  202.193
577.725;  155.610;  629.888;  854.201
578.003; -120.790;  -71.112; -371.798
578.280;  -91.384; -208.104; -242.812
578.558; -196.292; -450.115; -422.793
578.836; -124.891; -210.114; -145.795
579.114; -238.190; -630.112; -670.797
579.391;  -87.494;   -6.117;  -18.789
579.669; -248.892; -595.114; -704.794
579.947; -128.086; -326.107; -127.806
580.224; -241.286; -692.107; -524.806
580.502;  -65.486;  127.893;   76.193
580.779;  -22.294;  -42.117;   75.210
581.057; -170.787; -584.109; -470.804
581.334; -259.182; -726.102; -695.815
581.612;   18.215;   54.895;  511.190
581.889; -105.081;  -83.101; -129.818
582.167; -152.180; -298.099; -190.821
582.444; -244.281; -845.102; -814.817
582.721;  147.919;  657.899;  715.183
582.999;  -79.980; -326.100; -167.821
583.276; -250.598; -812.123; -713.779
583.553; -152.082; -364.102; -294.816
583.831; -260.084; -607.104; -631.812
584.108;   20.113;  349.892;  174.195
584.385; -106.082; -122.102;  -98.815
584.662; -265.889; -651.111; -828.801
584.940;   -2.989;  204.889;  204.199
585.217; -123.191;  -73.113; -303.796
585.494;  -62.488;   71.890;  118.198
585.771; -160.787; -250.109; -354.804
586.048; -112.191; -196.113;  -76.796
586.325; -268.388; -721.110; -773.801
586.602;   24.517;  230.896;  213.188
586.879; -180.780; -499.100; -580.820
587.156; -122.785; -156.105; -331.810
587.433; -282.882; -701.102; -667.817
587.710;  -53.590;  152.888;  234.202
587.987; -150.484; -264.105; -236.811
588.264;   22.110;  315.888;  387.202
588.541;  -68.683;  -61.104;   26.187
588.818;  -48.487;   72.892;  171.196
589.095; -101.984; -163.104; -174.812
589.371; -196.587; -459.109; -414.804
589.648; -178.586; -581.107; -437.807
589.925; -213.391; -517.114; -621.795
590.202; -221.090; -741.112; -607.798
590.478;  -72.884; -166.105;  -73.811
590.755; -115.587; -241.108; -132.806
591.032; -256.188; -741.110; -699.802
591.308; -252.475; -732.094; -790.831
591.585; -212.688; -573.110; -560.802
591.862; -312.581;-1056.102; -950.817
592.138; -173.887; -475.108; -474.805
592.415; -187.083; -486.104; -495.813
592.691;   82.416;  460.896;  518.188
592.968; -106.579; -208.098; -123.824
593.244; -239.493; -695.116; -595.790
593.521;  -73.381; -105.102;  -42.817
593.797; -321.098; -810.122; -720.780
594.074; -224.877; -611.096; -588.826
594.350;  175.324;  828.905;  729.172
594.626; -112.889; -303.111; -283.801
594.903; -243.081; -643.101; -645.817
595.179;   59.117;  243.896;  418.187
595.455; -106.186; -136.107; -150.807
595.731; -103.483;  -19.103;  -38.814
596.008; -160.089; -464.111; -434.800
596.284; -119.880; -187.100; -242.820
596.560; -198.775; -501.093; -493.833
596.836; -107.384; -173.105;  -70.810
597.112; -175.987; -582.108; -437.805
597.388;  -70.578;  -49.097;  -48.826
597.665;   73.210;  437.887;  530.203
597.941; -253.772; -572.089; -658.839
598.217; -164.888; -323.110; -293.802
598.493;  -92.587;   61.891; -204.804
598.769; -110.681; -175.100;  -50.819
599.045; -202.686; -490.108; -562.806
599.321; -145.880; -193.100; -261.820
599.597; -154.787; -355.109; -476.804
599.872;   80.017;  409.896;  429.187
600.148;  -78.977;  -61.097; -172.826
600.424;   -5.386;   91.893;  202.193
600.700; -124.386; -170.107; -280.807
600.976; -188.678; -442.097; -464.825
601.252; -117.587; -226.109; -272.803
601.527; -321.783; -833.104; -840.813
601.803; -139.784; -453.105; -404.812
602.079;  -90.081; -124.100; -118.819
602.354; -214.274; -620.092; -531.835
602.630; -120.391; -140.113; -482.796
602.906; -293.081; -910.101; -863.818
603.181; -214.395; -627.119; -534.786
603.457;  -64.578;   98.903; -278.826
603.733; -207.497; -605.120; -626.783
604.008; -102.985; -245.106; -164.810
604.284; -233.581; -636.101; -580.817
604.559;  -42.790;   -3.112;  -42.799
604.835; -130.784; -163.105; -225.810
605.110; -257.180; -732.099; -892.821
605.385;   67.426;  224.907;  267.167
605.661; -234.476; -625.095; -729.829
605.936; -241.986; -664.108; -737.806
606.211; -104.082;  -17.103; -170.815
606.487; -156.292; -329.114; -376.794
606.762; -269.795; -791.119; -745.786
607.037; -162.984; -501.105; -433.810
607.313; -219.577; -589.096; -574.828
607.588;  -92.685; -375.106; -137.810
607.863;  -80.481;  -28.101; -143.818
608.138;  114.212;  513.890;  516.198
608.413; -184.279; -576.099; -592.822
608.688; -170.487; -203.108; -267.805
608.964; -168.185; -509.106; -218.809
609.239; -106.385; -107.105; -212.810
609.514;   30.816;  281.895;  240.188
609.789; -265.084; -187.104; -716.812
610.064; -189.977; -435.096; -609.827
610.339; -288.087; -855.109; -799.804
610.614;  -77.880; -131.100; -315.820
610.889;    1.916;  215.895;  107.188
611.163; -208.584; -407.104; -591.812
611.438; -126.092;   81.886; -167.794
611.713; -180.281; -467.101; -499.817
611.988; -131.281; -144.101; -328.818
612.263; -255.682; -771.102; -717.815
612.538;   52.709;  385.887;  251.204
612.812; -278.180; -832.100; -911.820
613.087; -156.779; -358.098; -338.823
613.362; -207.686; -497.107; -557.807
613.637;   43.417;  261.897;  138.186
613.911; -118.874; -256.092; -345.835
614.186; -162.286; -249.107; -292.807
614.460; -310.765; -842.081; -758.854
614.735;  -77.470;  -55.087;  -17.843
615.010;  -41.171;   43.912;  -82.841
615.284;   63.013;  360.892;  246.195
615.559; -313.274; -792.092; -955.835
615.833;  -70.979;  -76.099;  -87.822
616.108; -109.773; -225.090; -390.837
616.382;   55.430;  274.913;  402.156
616.656; -121.173; -241.090; -232.837
616.931; -254.779; -785.099; -700.822
617.205; -305.683; -973.104; -979.813
617.480;  -63.500;  -91.125;    6.225
617.754; -147.400; -396.125; -128.774
618.028; -165.603; -369.129; -382.768
618.302;  -27.987;   73.892;  -25.805
618.577; -214.283; -371.103; -518.815
618.851; -148.888; -399.109; -600.803
619.125; -136.007; -335.134; -378.759
619.399; -112.983; -244.104; -374.813
619.673; -136.693; -330.115; -515.792
619.947; -168.091; -333.114; -448.795
620.222; -104.689; -198.110; -204.801
620.496;  -70.597;  -47.121;  -96.782
620.770;  -65.898; -187.122;  -93.781
621.044;   96.315;  323.895;  346.190
621.318; -240.697; -653.120; -614.783
621.592; -142.597; -430.121; -409.783
621.866; -212.490; -476.112; -572.799
622.140;  -97.393; -207.116; -356.791
622.413;    7.411;  138.889;  112.200
622.687; -183.581; -746.101; -492.817
622.961;  -77.087; -130.108; -143.805
623.235; -216.689; -633.111; -661.800
623.509; -283.184; -816.105; -848.811
623.783;  -32.186;  -12.107;   48.193
624.056; -119.397; -254.120; -280.783
624.330;   15.310;   63.888;   -3.797
624.604; -112.193; -271.116; -355.790
624.877;  -19.288;  180.890;   26.198
625.151; -111.492; -249.114; -238.794
625.425;  -96.083; -150.103; -283.814
625.698; -171.496; -367.119; -374.785
625.972; -256.888; -799.110; -765.802
626.245;   93.407;  685.884;  484.210
626.519; -159.696; -426.120; -340.784
626.792; -131.286; -192.107; -380.807
627.066; -245.398; -485.122; -662.779
627.339; -256.388; -736.110; -663.802
627.613;   33.104;  351.880;  148.216
627.886;   22.112;  187.891; -612.803
628.160;  -96.497;  312.880; -161.783
628.433; -248.900; -695.125; -703.775
628.706; -206.896; -517.120; -615.784
628.979;   52.601;  296.876;  117.223
629.253; -266.295; -785.119; -833.786
629.526; -164.501; -334.126; -253.772
629.799; -186.499; -641.123; -479.778
630.072; -199.203; -497.128; -516.769
630.346; -372.293;-1115.116;-1080.790
630.619; -216.286; -467.107; -545.808
630.892;  131.311;  709.889;  593.200
631.165;  136.117;  790.896;  679.187
631.438; -342.890;-1092.112;-1055.798
631.711;   60.302;  453.877;  257.221
631.984; -181.394; -523.117; -624.789
632.257; -238.194; -636.117; -681.789
632.530; -144.196; -412.119; -433.785
632.803;   14.908; -109.115;    7.207
633.076; -131.199; -360.123; -422.777
633.349;   -7.203;  173.872;  121.231
633.622; -118.796; -187.119; -240.785
633.895; -303.997; -903.120; -823.783
634.167; -167.501; -496.126; -525.773
634.440;  -41.293;  -19.116; -137.792
634.713;  -36.195;  -22.119; -120.786
634.986;  150.996;  593.871;  453.233
635.258; -187.792; -507.115; -597.793
635.531;  144.906;  742.882; -343.788
635.804; -141.494; -303.117; -318.789
636.077; -290.593; -830.116; -852.791
636.349; -217.392; -586.115; -474.793
636.622;  496.099; 1695.874; 1392.228
636.894; -175.696; -474.120; -909.784
637.167; -281.502; -836.127; -789.771
637.439;  -80.802; -278.128; -213.770
637.712; -139.901; -312.126; -293.772
637.984; -212.493; -635.116; -707.791
638.257;  115.201;  515.877;  488.222
638.529; -299.300; -881.125; -924.776
638.802; -231.403; -508.128; -449.769
639.074; -324.998; -927.122; -952.781
639.346; -308.308; -942.135; -930.757
639.619;  -42.114;  -79.142; -319.744
639.891; -117.298;  -83.122; -168.779
640.163; -228.498; -689.122; -756.780
640.435;    9.602;  273.878;  103.220
640.708;  -43.198;  -72.122; -132.780
640.980; -173.198; -366.122; -362.781
641.252;   -5.497;  -25.121;  -71.781
641.524;  129.403;  580.879;  573.219
641.796; -323.297;-1094.121; -907.782
642.068; -104.897; -191.121; -300.782
642.340; -151.097; -486.121; -566.783
642.613;   34.503;  294.880;  323.217
642.885; -258.296; -787.120; -878.783
643.157; -286.796; -810.120; -658.784
643.428;   53.904;  170.880;  218.216
643.700; -152.696; -498.120; -425.784
643.972;  -45.796;  -16.119; -133.785
644.244; -192.096; -474.119; -559.785
644.516; -112.995; -250.119; -114.786
644.788;  132.205;  662.881;  548.214
645.060;  -41.195;  -12.119; -124.786
645.332; -231.495; -525.118; -535.787
645.603;   72.305;  479.882;  342.213
645.875; -163.995; -334.118; -369.787
646.147;  357.406; 1487.882; 1242.212
646.418; -321.594; -931.117; -918.788
646.690; -243.294; -714.117; -715.789
646.962; -164.994; -413.117; -451.789
647.233;  -28.094;   15.883;   11.211
647.505; -222.894; -595.117; -475.790
647.776;   65.507;  328.884;  229.210
648.048; -151.693; -248.116; -418.790
648.320; -249.093; -752.116; -679.791
648.591; -310.693;-1055.116; -958.791
648.862; -135.393; -505.116; -577.792
649.134;  -10.793;  115.885;  198.208
649.405; -179.592; -661.115; -618.792
649.677; -195.492; -475.115; -598.793
649.948;  -72.792; -181.115; -296.793
650.219;  -39.492;  -37.115; -147.793
650.491; -155.692; -431.114; -520.794
650.762; -233.692; -705.114; -731.794
651.033; -175.291; -437.114; -424.795
651.304; -313.391; -743.114; -728.795
651.576; -200.291; -680.114; -645.795
651.847;  -79.091; -250.113; -140.796
652.118;  -32.891;  -32.113; -189.796
652.389; -208.391; -639.113; -722.796
652.660;  -80.490; -147.113;  -89.797
652.931; -317.690; -897.112; -871.797
653.202; -146.690; -382.112; -541.798
653.473; -196.490; -633.112; -533.798
653.744; -184.090; -595.112; -590.798
654.015; -157.890; -356.112; -303.799
654.286; -209.589; -642.111; -663.799
654.557; -215.689; -586.111; -521.799
654.828; -331.489;-1114.111;-1088.800
655.099; -160.589; -404.111; -291.800
655.370; -200.089; -427.111; -543.801
655.641; -254.589; -656.110; -714.801
655.911; -194.388; -618.110; -638.801
656.182;   72.812;  437.890;  387.198
656.453;  158.612;  830.890;  746.198
656.724; -182.988; -466.110; -426.802
656.994; -178.188; -553.109; -568.803
657.265; -276.188; -862.109; -873.803
657.536; -160.587; -500.109; -377.804
657.806; -205.487; -561.109; -593.804
658.077; -254.287; -866.109; -950.804
658.347; -186.187; -523.108; -598.805
658.618; -217.587; -646.108; -694.805
658.888;  -44.487;  -41.108;  112.195
659.159; -181.486; -432.108; -548.806
659.429; -155.486; -292.108; -349.806
659.700; -144.186; -435.107; -390.807
659.970; -166.086; -370.107; -359.807
660.241; -306.686; -754.107; -921.807
660.511;  -61.286; -147.107; -174.808
660.781; -218.585; -793.106; -748.808
661.052; -106.685; -222.106; -381.808
661.322;  -43.785;   21.894;   -9.809
661.592;   43.215;  257.894;  148.191
661.862; -124.985; -369.106; -382.810
662.133; -212.785; -551.105; -502.810
662.403; -257.784; -770.105; -676.810
662.673; -129.484; -256.105; -213.811
662.943; -205.384; -612.105; -551.811
663.213;  -84.484;  -85.105;  -81.811
663.483; -142.984; -593.104; -568.812
663.753;  -98.984; -194.104; -152.812
664.023;   -9.283;   68.896;  -32.813
664.293; -135.083; -319.104; -126.813
664.563; -241.683; -694.104; -648.813
664.833; -240.883; -743.103; -608.814
665.103; -252.883; -730.103; -793.814
665.373; -268.783; -766.103; -806.814
665.643; -284.882; -863.103; -918.815
665.913; -229.082; -534.103; -714.815
666.182; -248.582; -685.102; -719.816
666.452;  -98.982;  -22.102;  -89.816
666.722; -251.482; -724.102; -784.816
666.992; -320.482; -948.102; -921.817
667.261; -253.481; -824.102; -808.817
667.531;  -43.481;  134.899;   45.183
667.801; -144.881; -440.101; -412.818
668.070;  161.119;  714.899;  697.182
668.340; -273.181; -883.101; -840.819
668.609;  119.619;  588.900;  301.181
668.879; -204.580; -490.100; -558.819
669.149; -180.380; -539.100; -516.820
669.418; -239.680; -698.100; -726.820
669.688; -215.280; -482.100; -666.820
669.957; -160.580; -423.099; -546.821
670.226; -107.980; -268.099; -331.821
670.496; -187.879; -431.099; -635.822
670.765; -180.879; -418.099; -501.822
671.034; -271.779; -872.099; -828.822
671.304;  -12.179;   55.902; -111.823
671.573; -334.179;-1085.098; -957.823
671.842; -167.079; -380.098; -294.823
672.112; -199.778; -692.098; -586.824
672.381;  -77.978; -239.098; -214.824
672.650; -317.378;-1005.097;-1021.825
672.919; -213.178; -631.097; -507.825
673.188; -228.878; -681.097; -878.825
673.457; -386.278;-1101.097;-1143.826
673.726; -212.577; -579.096; -646.826
673.995; -155.077; -533.096; -479.826
674.265; -155.277; -263.096; -333.827
674.534; -130.577; -183.096; -235.827
674.802; -186.277; -618.096; -703.828
675.071; -272.677; -886.095; -801.828
675.340; -202.676; -464.095; -339.828
675.609;  -12.776;  103.905;   82.171
675.878; -304.376; -949.095; -893.829
676.147;  -43.576;  -26.095;   -8.829
676.416; -121.976; -210.094; -294.830
676.685;  270.224; 1000.906; -622.830
676.953; -195.975; -603.094; -452.831
677.222;  -85.975; -193.094; -273.831
677.491;  -63.275;  -24.094; -127.831
677.759;  -28.775;   11.907;  172.168
678.028; -109.575; -279.093; -222.832
678.297;  -21.675;   71.907;  197.168
678.565; -293.274; -898.093; -944.833
678.834; -136.674; -311.093; -268.833
679.102; -125.874; -411.092; -391.834
679.371; -296.774; -898.092; -727.834
679.639; -267.974; -797.092; -786.834
679.908; -249.274; -794.092; -724.835
680.176; -326.173; -895.091; -941.835
680.445; -119.273; -346.091; -352.835
680.713;  -13.973;  -58.091;  -23.836
680.982; -196.073; -523.091; -525.836
681.250; -195.673; -578.091; -507.837
681.518; -208.773; -534.090; -751.837
681.787;  -99.472; -204.090; -167.837
682.055; -155.172; -490.090; -422.838
682.323; -318.572; -993.090; -992.838
682.591; -124.872; -216.090; -538.838
682.859;  -57.972;    9.911;  -35.839
683.128;   -6.072;  232.911;  497.161
683.396; -337.471;-1102.089;-1122.840
683.664;  -72.471; -241.089;   21.160
683.932;   21.829;  144.911;  -76.840
684.200; -179.471; -576.088; -320.841
684.468;  -83.071;  -73.088; -124.841
684.736;  -76.971; -214.088; -175.841
685.004; -330.570;-1024.088; -982.842
685.272; -272.370; -880.088; -774.842
685.540; -182.870; -499.087; -557.843
685.808; -239.070; -651.087; -682.843
686.076; -280.370; -894.087; -969.843
686.343; -209.770; -601.087; -815.844
686.611;  -32.469; -195.087; -224.844
686.879; -208.169; -530.086; -553.844
687.147; -160.169; -483.086; -480.845
687.414;  -79.269;  -12.086; -169.845
687.682; -211.969; -658.086; -757.846
687.950;   26.431;  259.915;  263.154
688.217; -254.168; -792.085; -760.846
688.485; -235.068; -632.085; -636.847
688.753;  -83.368;  -11.085; -102.847
689.020; -272.768; -820.085; -851.847
689.288; -231.568; -853.084; -787.848
689.555;  -99.968; -195.084; -148.848
689.823; -120.667; -241.084; -345.849
690.090; -207.067; -546.084; -651.849
690.358; -320.167; -877.084; -897.849
690.625;    8.133;  120.917;   45.150
690.892; -172.267; -403.083; -369.850
691.160;  -35.367;   72.917;  -35.850
691.427;  -12.266;  141.917;  130.149
691.694; -326.766; -855.083; -929.851
691.962; -336.966;-1177.082;-1060.852
692.229;  -28.766;  127.918;   56.148
692.496;  -61.966;  130.918;  -49.852
692.763; -111.266; -164.082; -201.853
693.031; -184.165; -739.082; -716.853
693.298; -211.865; -509.081; -368.853
693.565;  -90.965; -155.081; -163.854
693.832;  -27.865;   -5.081;   -9.854
694.099; -214.065; -643.081; -642.855
694.366; -321.765; -882.081; -896.855
694.633; -297.764; -920.080; -633.855
694.900; 1327.736; 4367.920; -114.856
695.167;  -55.464; -214.080; -380.856
695.434; -244.064; -646.080; -623.856
695.701;   13.936;  121.921;  -61.857
695.968; -177.964; -365.079; -361.857
696.234; -206.963; -415.079; -646.858
696.501; -210.863; -776.079; -614.858
696.768; -217.763; -554.079; -617.858
697.035; -234.863; -632.078; -667.859
697.302; -199.563; -448.078; -552.859
697.568; -160.763; -458.078; -497.859
697.835; -222.762; -683.078; -624.860
698.102; -153.962; -498.078; -407.860
698.368;   43.838;  384.923;  396.139
698.635; -164.962;  -47.077; -424.861
698.901; -111.162; -240.077; -348.861
699.168; -167.362; -534.077; -456.862
699.435;  -51.261;  -72.077;  -13.862
699.701; -342.161; -868.076; -764.862
699.968; -137.161;  144.924; -441.863
700.234; -264.861; -783.076; -822.863
700.500; -167.061; -448.076; -539.864
700.767;  -39.861;   -1.075;   26.136
701.033; -314.060;-1015.075; -963.864
701.299; -168.760; -450.075; -483.865
701.566;  226.640;  950.925;  763.135
701.832;    4.640;  -31.075;  -76.865
702.098; -272.260;-1054.074;-1034.866
702.365; -346.260;-1098.074;-1030.866
702.631; -339.959;-1038.074;-1063.867
702.897; -257.959; -765.074; -676.867
703.163;   25.141;  348.926;  254.133
703.429;  -94.859; -256.073; -273.868
703.695; -248.259; -796.073; -792.868
703.961; -100.459; -214.073; -210.868
704.227; -234.158; -630.073; -725.869
704.493;   97.542;  613.927;  510.131
704.759; -167.758; -565.072; -540.870
705.025;  -91.258; -203.072; -194.870
705.291; -173.058; -666.072; -562.870
705.557;  179.742;  719.928;   34.129
705.823; -242.357; -742.072; -694.871
706.089; -111.257; -307.071; -326.871
706.355;  -94.457; -315.071; -244.872
706.620; -276.157; -776.071; -729.872
706.886; -119.557; -309.071; -362.873
707.152; -314.957; -818.070; -973.873
707.418; -373.256;-1153.070;-1186.873
707.683; -208.156; -550.070; -530.874
707.949; -202.056; -547.070; -578.874
708.215; -108.356; -129.070; -207.874
708.480; -158.956; -520.069; -420.875
708.746;  -20.156;   68.931;   28.125
709.011; -184.155; -578.069; -612.876
709.277; -199.355; -538.069; -543.876
709.542; -140.455; -428.069; -387.876
709.808;  -71.655;  -59.068;   89.123
710.073; -216.255; -577.068; -695.877
710.339;  -87.255; -242.068; -228.877
710.604; -270.654; -780.068; -845.878
710.869; -134.154; -277.068; -366.878
711.135; -231.554; -715.067; -628.879
711.400; -232.354; -507.067; -608.879
711.665; -167.254; -404.067; -479.879
711.931; -230.654; -661.067; -677.880
712.196; -286.353; -876.067; -954.880
712.461; -175.853; -402.066; -490.880
712.726; -244.253; -727.066; -771.881
712.991; -237.753; -647.066; -664.881
713.256; -152.253; -350.066; -332.882
713.521; -169.853; -417.065; -381.882
713.787; -154.852; -454.065; -472.882
714.052; -139.352; -214.065; -400.883
714.317; -347.952;-1045.065; -981.883
714.581; -161.352; -374.065; -268.883
714.846; -304.152; -822.064; -888.884
715.111;    7.548;  261.936;  257.116
715.376; -104.051;  -86.064; -223.885
715.641; -134.951; -365.064; -367.885
715.906; -157.651;   15.936; -551.885
716.171;   16.949;  221.937;  209.114
716.436;  -51.551;  -78.063; -104.886
716.700; -280.951; -818.063; -692.886
716.965; -256.650; -794.063; -807.887
717.230; -160.350; -339.063; -392.887
717.494;  -58.050;  -40.062; -134.888
717.759; -241.350; -784.062; -640.888
718.024;   12.050;  269.938;  250.112
718.288;  169.550;  685.938;  395.111
718.553; -312.949; -803.062; -977.889
718.817; -280.049; -883.061; -899.889
719.082;  -35.749; -115.061; -125.890
719.346; -298.449;-1000.061; -947.890
719.611; -103.849; -300.061; -255.891
719.875; -232.749; -568.060; -537.891
720.140; -159.248; -453.060; -603.891
720.404;  -96.748; -136.060; -249.892
720.668; -134.348; -475.060; -411.892
720.933;  -20.748;  146.940;  137.108
721.197; -241.448; -667.059; -600.893
721.461; -322.248; -851.059; -826.893
721.725;    1.253;  -21.059; -250.894
721.990; -122.447; -284.059; -204.894
722.254;  -29.947;  -26.059; -108.894
722.518; -134.947; -286.058; -442.895
722.782; -234.747; -743.058; -594.895
723.046;  129.553;  614.942;  570.105
723.310;   62.354;  374.942;  210.104
723.574; -186.546; -654.058; -614.896
723.838; -197.946; -576.057; -642.897
724.102;  -84.846; -226.057; -239.897
724.366; -273.146;-1032.057; -978.897
724.630; -235.546; -749.057; -571.898
724.894; -189.045; -722.057; -514.898
725.158;  -48.745;   38.944; -295.898
725.422; -136.345; -394.056; -327.899
725.685; -161.245; -441.056; -349.899
725.949; -234.345; -566.056; -519.900
726.213; -286.745; -732.056; -811.900
726.477; -347.944;-1020.055; -933.900
726.740;  -74.944; -274.055; -104.901
727.004; -187.644; -384.055; -510.901
727.268; -200.344; -442.055; -400.901
727.531; -278.344; -961.055; -775.902
727.795; -234.244; -713.054; -673.902
728.059; -225.043; -552.054; -557.903
728.322; -257.843; -841.054; -669.903
728.586; -200.443; -692.054; -701.903
728.849; -266.543; -695.053; -756.904
729.112; -260.443; -812.053; -912.904
729.376; -291.043; -959.053; -905.904
729.639; -199.442; -536.053; -536.905
729.903; -263.442; -733.053; -699.905
730.166; -119.942; -437.052; -399.906
730.429;  -85.842; -317.052; -468.906
730.693; -187.942; -355.052; -894.906
730.956;  120.958;  810.948;  651.093
731.219;  -87.541; -310.052; -103.907
731.482; -304.241;-1003.051; -894.907
731.745; -287.341; -794.051; -935.908
732.009;  -36.841;  -30.051;   50.092
732.272; -236.241; -904.051; -771.909
732.535; -107.841; -300.051; -310.909
732.798; -355.840;-1083.050;-1166.909
733.061; -190.640; -430.050; -456.910
733.324;  -28.740;   31.950; -180.910
733.587;   79.960;  290.950;  365.090
733.850; -219.040; -973.049;-1050.911
734.113;  -17.340;   33.951;   32.089
734.376; -153.139; -328.049; -447.912
734.639;  268.261; 1188.951; 1011.088
734.901;  -77.139; -180.049; -402.912
735.164; -277.639; -883.048; -837.913
735.427;  -54.439; -166.048; -355.913
735.690;  -76.839; -205.048; -234.913
735.952; -312.038; -923.048; -925.914
736.215; -360.638;-1113.048;-1009.914
736.478; -274.238; -771.047; -774.915
736.740;  -74.138;   33.953;  129.085
737.003; -233.038; -658.047; -672.915
737.266;  208.862;  -94.047;   46.084
737.528; -223.037; -682.047; -660.916
737.791; -149.337; -316.046; -327.916
738.053;   66.263;  465.954;  649.083
738.316; -116.937; -162.046; -136.917
738.578; -259.337; -770.046; -736.918
738.841; -143.437; -382.046; -446.918
739.103; -270.236; -875.045; -777.918
739.365;  -72.836;   79.955;  -69.919
739.628; -240.536; -884.045; -805.919
739.890; -273.436; -758.045; -710.919
740.152; -253.836; -692.044; -754.920
740.414; -165.536; -408.044; -359.920
740.677; -201.335; -785.044; -634.921
740.939; -237.735; -587.044; -487.921
741.201; -168.035; -432.044; -572.921
741.463; -210.735; -689.043; -745.922
741.725;  -79.735;  -21.043; -199.922
741.987;  -17.835;  220.957;  116.078
742.249; -259.734; -751.043; -859.923
742.511; -254.934; -703.043; -794.923
742.773; -180.134; -546.042; -546.924
743.035;  103.666;  796.958;  533.076
743.297; -315.234; -963.042;-1013.924
743.559; -104.134; -278.042; -262.925
743.821; -270.733; -735.042; -744.925
744.083; -109.933;  -44.041; -149.925
744.345; -289.533; -869.041; -892.926
744.607;  -30.733;   75.959;  122.074
744.868; -188.033; -490.041; -554.927
745.130; -340.733; -994.041;-1008.927
745.392;   -4.032;   -1.040;  -44.927
745.653; -161.432; -411.040; -378.928
745.915;  195.468;  896.960;  631.072
746.177;  -86.632;   35.960;  -43.928
746.438; -185.632; -428.040; -543.929
746.700; -308.332; -947.039; -988.929
746.961; -266.831; -659.039; -740.930
747.223;  -78.231; -190.039;  -74.930
747.484; -171.131; -391.039; -471.930
747.746;  -95.031;  -23.038; -106.931
748.007; -245.731; -647.038; -689.931
748.269; -149.631; -468.038; -440.931
748.530; -208.830; -852.038; -638.932
748.791; -174.630; -354.038; -420.932
749.053;   34.570;  286.963;  163.067
749.314; -109.630; -236.037; -169.933
749.575; -267.130; -945.037; -905.933
749.836;  -82.130; -217.037;   86.066
750.098;  -66.329;  -60.037;  -21.934
750.359;   73.771;  414.964;  555.066
750.620; -101.229; -121.036; -220.935
750.881; -242.429; -585.036; -513.935
751.142; -314.229; -950.036; -938.936
751.403; -233.029; -789.036; -705.936
751.664; -364.128;-1034.035; -999.936
751.925; -106.028; -175.035; -262.937
752.186;  -99.728; -298.035; -278.937
752.447; -198.428; -590.035; -445.937
752.708; -196.728; -532.035; -648.938
752.969; -244.428; -566.034; -576.938
753.230; -293.127; -777.034; -672.939
753.491; -246.227; -650.034; -631.939
753.751;   -4.227;  109.966;   19.061
754.012;   44.873;  258.967;  181.060
754.273;  -71.127; -174.033;  -71.940
754.534; -209.927; -487.033; -580.940
754.794; -300.926; -926.033; -911.941
755.055;  211.574; 1051.967;  881.059
755.316; -218.026; -700.032; -566.942
755.576; -207.526; -606.032; -576.942
755.837; -228.426; -527.032; -695.942
756.097; -202.126; -530.032; -564.943
756.358; -261.425; -725.032; -770.943
756.618; -216.725; -705.031; -641.943
756.879; -133.325; -254.031; -349.944
757.139; -363.625;-1098.031;-1116.944
757.400; -218.225; -538.031; -553.945
757.660; -152.625; -365.031; -401.945
757.920; -136.024; -266.030; -228.945
758.181; -167.124; -468.030; -351.946
758.441; -271.024; -870.030; -809.946
758.701; -129.724; -308.030; -215.946
758.961; -111.224; -220.030; -278.947
759.222; -201.524; -574.029; -502.947
759.482; -229.323; -683.029; -723.948
759.742; -262.423; -706.029; -547.948
760.002;  -78.223;  -83.029; -143.948
760.262;  -69.723;   50.972;  182.051
760.522; -189.323; -498.028; -574.949
760.782; -244.323; -738.028; -612.949
761.042; -184.622; -618.028; -573.950
761.302;  -13.622;   55.972;  -18.950
761.562;  -92.522; -164.027; -154.951
761.822; -241.522; -710.027; -551.951
762.082; -359.022;-1104.027;-1093.951
762.342; -179.522; -328.027; -403.952
762.601; -191.321; -567.027; -506.952
762.861; -151.021; -281.026; -207.952
763.121; -120.621; -406.026; -411.953
763.381; -197.521; -499.026; -485.953
763.640; -130.921; -139.026; -307.954
763.900; -102.321; -242.026; -203.954
764.160; -142.520; -458.025; -491.954
764.419; -252.520; -726.025; -782.955
764.679; -262.420; -795.025; -726.955
764.939; -103.120; -124.025; -210.955
765.198; -220.920; -608.025; -563.956
765.458; -224.620; -710.024; -612.956
765.717; -217.819; -454.024; -590.957
765.976; -145.819; -428.024; -411.957
766.236; -192.419; -475.024; -610.957
766.495;   -7.519;  260.977;   73.042
766.755; -344.419;-1090.023; -987.958
767.014; -232.319; -594.023; -665.958
767.273; -136.718; -373.023; -397.959
767.533; -138.918; -228.023; -307.959
767.792;  -85.518; -151.022; -188.960
768.051; -125.618; -228.022; -276.960
768.310; -191.318; -546.022; -650.960
768.569;  -54.818; -161.022;    4.039
768.828; -138.417; -285.022; -363.961
769.088; -338.817;-1050.021; -942.961
769.347; -245.017; -755.021; -599.962
769.606; -293.917; -876.021; -857.962
769.865; -341.117;-1016.021;-1033.963
770.124;  -89.817; -411.021; -336.963
770.383; -286.816; -778.020; -910.963
770.641; -186.016; -398.020; -400.964
770.900; -302.516; -953.020; -846.964
771.159; -313.816; -851.020; -951.964
771.418; -295.816; -917.020; -779.965
771.677; -100.916; -224.019; -293.965
771.936; -281.915; -794.019; -865.966
772.194; -272.115; -465.019; -437.966
772.453; -127.115; -213.019; -391.966
772.712;   60.285;  416.982;  329.033
772.970;  -35.715;   32.982;   63.033
773.229;  -79.915;  -22.018;  102.033
773.488; -288.114; -814.018; -770.968
773.746;   56.086;  296.982;  335.032
774.005;  -18.114;  190.983;  -22.969
774.263;  -20.314;  243.983;  177.031
774.522; -208.914; -422.017; -548.969
774.780; -156.314; -484.017; -417.970
775.039; -189.713; -551.017; -531.970
775.297;  -70.113; -135.016; -351.970
775.555; -216.013; -489.016; -612.971
775.814; -233.213; -618.016; -570.971
776.072; -255.413; -749.016; -740.971
776.330; -217.513; -630.016; -520.972
776.589; -244.012; -703.015; -721.972
776.847; -238.212; -645.015; -624.973
777.105; -344.712;-1016.015;-1032.973
777.363; -141.612; -459.015; -454.973
777.621; -261.412; -660.015; -717.974
777.879;  -33.112;  -42.014;   32.026
778.138; -189.111; -554.014; -717.974
778.396; -225.811; -585.014; -526.975
778.654; -343.511;-1015.014; -970.975
778.912; -150.611; -269.014; -371.976
779.170; -268.511; -880.013; -803.976
779.427; -330.211; -922.013; -897.976
779.685; -317.310; -880.013; -832.977
779.943; -221.210; -654.013; -593.977
780.201; -306.110; -964.012; -883.978
780.459; -235.610; -651.012; -610.978
780.717; -148.510; -440.012; -390.978
780.974; -192.410; -449.012; -490.979
781.232; -166.809; -358.012; -338.979
781.490; -245.709; -551.011; -472.979
781.747; -193.809; -555.011; -476.980
782.005;   65.891;  462.989;  254.020
782.263; -314.909; -542.011;-1004.981
782.520; -165.409; -326.011; -501.981
782.778; -338.308;-1013.010;-1051.981
783.035; -347.208; -962.010; -938.982
783.293;  -62.508; -248.010; -206.982
783.550; -100.608; -134.010; -198.982
783.808; -248.608; -764.010; -776.983
784.065; -326.808; -745.009; -874.983
784.322;  -68.507;   25.991;  -86.984
784.580; -291.307; -915.009; -771.984
784.837; -181.607; -392.009; -466.984
785.094; -274.707; -783.009; -762.985
785.352; -137.607; -304.008; -404.985
785.609; -309.107; -934.008; -839.985
785.866; -149.806; -345.008; -401.986
786.123; -244.706; -639.008; -583.986
786.380; -248.206; -665.008; -604.987
786.637; -150.306; -225.007; -380.987
786.895; -229.706; -456.007; -543.987
787.152;  -90.206; -135.007; -267.988
787.409;  -68.305; -123.007; -225.988
787.666; -166.305; -299.006; -378.988
787.923; -228.105; -616.006; -695.989
788.179; -188.205; -551.006; -584.989
788.436; -191.105; -585.006; -585.990
788.693;  -89.305;  -92.006;  -87.990
788.950;  -45.004; -125.005; -112.990
789.207; -207.904; -381.005; -372.991
789.464; -104.304; -161.005; -301.991
789.720;  -10.904;  150.995;  110.009
789.977; -357.004;-1003.005; -671.992
790.234;  -40.504;   44.996;  -66.992
790.490; -336.903; -884.004;-1031.993
790.747;  -61.403;  -85.004;   22.007
791.004; -125.603; -426.004; -348.993
791.260; -169.303; -430.004; -560.994
791.517; -245.403; -843.003; -788.994
791.773; -176.103; -379.003; -342.994
792.030; -250.802; -596.003; -660.995
792.286; -244.502; -686.003; -636.995
792.543;  -56.702;  -74.002; -159.995
792.799; -173.402; -584.002; -382.996
793.055; -381.702;-1179.002;-1210.996
793.312; -306.202; -827.002; -816.997
793.568; -217.401; -746.002; -599.997
793.824; -152.301; -226.001; -284.997
794.081; -139.701; -447.001; -508.998
794.337; -232.201; -664.001; -561.998
794.593; -115.501; -319.001; -271.999
794.849; -286.201; -746.001; -772.999
795.105; -158.700; -270.000; -261.999
795.361; -164.900; -490.000; -457.000
795.617; -288.800; -875.000; -945.000
795.873; -182.400; -360.000; -407.000
796.129; -125.100; -368.000; -306.000
796.385; -118.400; -124.000; -156.000
796.641;   85.600;  412.000;  550.000
796.897; -251.200; -666.000; -635.000
797.153;   77.100;  453.000;  357.000
797.409; -304.500; -785.000; -868.000
797.665; -216.200; -625.000; -732.000
797.921; -281.500; -775.000; -762.000
798.176; -273.100; -744.000; -747.000
798.432; -301.800; -824.000; -596.000
798.688; -349.300;-1174.000;-1078.000
798.943;  -75.300; -165.000; -147.000
799.199; -289.100;-1005.000; -959.000
799.455;   80.600;  369.000;  316.000
799.710; -277.400; -813.000; -380.000
799.966; -106.800; -162.000; -160.000
800.221; -226.900; -638.000; -721.000
800.477; -232.100; -743.000; -710.000
800.732; -272.400; -773.000; -800.000
800.988;   -3.000;  205.000;  -19.000
801.243; -126.100; -454.000; -344.000
801.498; -282.100; -814.000; -739.000
801.754; -105.700; -289.000; -163.000
802.009; -154.200; -257.000; -335.000
802.264; -316.700; -967.000;-1033.000
802.520;  -92.900;  222.000;   -3.000
802.775; -172.800; -524.000; -359.000
803.030;   48.900;  395.000;  356.000
803.285; -314.700; -840.000; -903.000
803.540; -221.000; -686.000; -699.000
803.795; -221.900; -648.000; -583.000
804.051; -133.200; -279.000; -346.000
804.306;  -32.100;  168.000;  128.000
804.561;    9.600;  451.000;  362.000
804.816;  204.200;  714.000;  861.000
805.071; -129.100; -185.000; -280.000
805.325; -140.400; -257.000; -427.000
805.580; -291.100; -841.000; -877.000
805.835; -107.000; -204.000; -297.000
806.090; -250.700; -760.000; -676.000
806.345; -150.100; -344.000; -264.000
806.600; -214.300; -549.000; -632.000
806.854; -202.500; -408.000; -538.000
807.109; -182.900; -493.000; -577.000
807.364; -123.600; -407.000; -328.000
807.618; -160.700; -415.000; -381.000
807.873; -216.900; -470.000; -494.000
808.128; -115.800; -257.000; -518.000
808.382; -112.700; -224.000; -332.000
808.637; -221.800; -440.000; -511.000
808.891;  -96.300; -257.000; -180.000
809.146; -332.000; -902.000; -794.000
809.400; -284.300; -848.000; -923.000
809.654; -238.700; -779.000; -551.000
809.909; -308.000; -841.000; -927.000
810.163; -255.700; -813.000; -651.000
810.418; -332.100; -940.000; -861.000
810.672; -244.400; -685.000; -690.000
810.926; -319.500; -993.000; -973.000
811.180; -156.900; -439.000; -372.000
811.434;   -4.200;  240.000;  135.000
811.689; -194.300; -231.000; -365.000
811.943; -337.100; -936.000; -953.000
812.197; -266.700; -893.000; -671.000
812.451; -169.900; -379.000; -514.000
812.705; -306.000; -809.000; -619.000
812.959; -225.200; -263.000; -388.000
813.213; -121.800; -283.000; -209.000
813.467;   76.500;  470.000;  253.000
813.721; -299.400; -764.000; -792.000
813.975; -261.300; -826.000; -877.000
814.229;   29.100;  430.000;  353.000
814.482; -225.600; -517.000; -566.000
814.736; -275.100; -766.000; -744.000
814.990; -283.000; -779.000; -872.000
815.244; -135.200; -228.000; -285.000
815.497; -248.100; -636.000; -601.000
815.751;  -67.400; -141.000;   82.000
816.005; -179.100; -470.000; -586.000
816.258; -197.400; -510.000; -363.000
816.512; -263.300; -693.000; -610.000
816.766;   -9.000;  121.000;  157.000
817.019;   11.900;  148.000;  149.000
817.273; -319.400;-1000.000; -802.000
817.526; -104.100; -206.000; -173.000
817.779; -340.300;-1049.000; -960.000
818.033; -273.500; -693.000; -807.000
818.286; -293.100; -725.000; -792.000
818.540; -197.400; -403.000; -403.000
818.793; -188.700; -402.000; -489.000
819.046; -215.400; -582.000; -520.000
819.299;  -63.800; -157.000; -166.000
819.553; -231.400; -552.000; -592.000
819.806; -341.200;-1016.000; -838.000
820.059; -131.500; -334.000; -354.000
820.312;   -0.400;  152.000;  185.000
820.565;  -34.000;  110.000;  -27.000
820.818;  -85.000;  -59.000; -173.000
821.071; -294.500;-1041.000; -957.000
821.324; -216.800; -536.000; -540.000
821.577; -200.400; -457.000; -483.000
821.830; -108.300; -270.000; -172.000
822.083; -241.400; -733.000; -288.000
822.336; -118.500; -261.000; -167.000
822.589; -263.400; -805.000; -688.000
822.842; -302.300; -875.000; -770.000
823.094; -381.000;-1076.000;-1114.000
823.347; -278.200; -925.000; -729.000
823.600;   34.800;  402.000;  187.000
823.853; -129.400; -311.000; -267.000
824.105; -185.200; -331.000; -575.000
824.358; -274.200; -617.000; -716.000
824.611;   11.400;  234.000;   40.000
824.863; -210.400; -612.000; -591.000
825.116;  -67.200;  -33.000;   27.000
825.368; -186.400; -366.000; -372.000
825.621; -109.400; -186.000; -240.000
825.873; -275.200; -704.000; -737.000
826.126; -264.900; -669.000; -641.000
826.378; -203.500; -389.000; -505.000
826.630; -301.000; -890.000; -898.000
826.883; -278.000; -754.000; -693.000
827.135; -160.100; -279.000; -270.000
827.387; -321.600; -893.000; -839.000
827.639;  -69.300;  -86.000;   32.000
827.892; -279.500; -742.000; -582.000
828.144; -281.600; -848.000; -804.000
828.396;  -28.900;  104.000;  -80.000
828.648; -179.200; -440.000; -333.000
828.900; -294.000; -702.000; -795.000
829.152; -241.800; -684.000; -683.000
829.404; -109.600; -215.000; -267.000
829.656;   35.300;  321.000;  214.000
829.908;  -34.200;  393.000;  229.000
830.160; -319.900;-1064.000;-1047.000
830.412; -230.200; -481.000; -430.000
830.664; -214.300; -557.000; -665.000
830.916; -134.400; -268.000; -206.000
831.167; -325.100;-1073.000; -951.000
831.419; -234.800; -623.000; -566.000
831.671; -281.200; -764.000; -809.000
831.923; -148.900; -311.000; -447.000
832.174; -139.500; -273.000; -331.000
832.426; -224.300; -493.000; -582.000
832.678; -359.500;-1043.000;-1091.000
832.929; -338.400; -947.000; -935.000
833.181; -196.200; -575.000; -677.000
833.432; -122.000;  -59.000; -186.000
833.684;  -23.300;  112.000;  -27.000
833.935; -259.400; -610.000; -566.000
834.187; -233.200; -829.000; -823.000
834.438;  -90.400;  -58.000;  -25.000
834.689;  -95.600; -255.000; -123.000
834.941; -130.600; -343.000; -244.000
835.192; -215.000; -590.000; -533.000
835.443; -232.400; -419.000; -506.000
835.695;  -34.000;  138.000;  -16.000
835.946; -187.100; -608.000; -378.000
836.197; -219.200; -599.000; -622.000
836.448; -206.100; -528.000; -395.000
836.699; -150.200; -253.000; -341.000
836.950;  -17.900;   72.000;    7.000
837.201; -354.500;-1003.000; -987.000
837.452; -130.600; -356.000; -170.000
837.703; -278.200; -791.000; -737.000
837.954; -153.900; -205.000; -365.000
838.205; -316.300;-1029.000;-1008.000
838.456; -167.300; -196.000; -282.000
838.707; -181.800; -423.000; -519.000
838.958; -277.100; -634.000; -647.000
839.209;  -44.600;   18.000;   40.000
839.460; -152.600; -439.000; -201.000
839.710; -125.500; -135.000; -297.000
839.961;  106.300;  730.000;  612.000
840.212; -199.900; -382.000; -497.000
840.462; -133.600; -328.000; -277.000
840.713; -218.300; -571.000; -536.000
840.964; -110.200;  -62.000; -143.000
841.214; -202.900; -384.000; -624.000
841.465; -107.300; -214.000; -141.000
841.715; -156.300; -417.000; -380.000
841.966; -291.300; -746.000; -685.000
842.216; -203.600; -330.000; -431.000
842.466; -129.100; -169.000; -313.000
842.717; -336.300; -964.000; -952.000
842.967; -236.600; -635.000; -641.000
843.217;  -56.800;   20.000;   28.000
843.468; -103.800; -104.000; -132.000
843.718; -264.800; -718.000; -726.000
843.968; -285.900; -837.000; -765.000
844.218; -140.200; -315.000; -262.000
844.469; -220.200; -577.000; -561.000
844.719; -246.800; -537.000; -682.000
844.969; -221.600; -550.000; -580.000
845.219; -305.500; -814.000; -862.000
845.469; -156.100; -392.000; -342.000
845.719; -289.400; -792.000; -884.000
845.969;  -33.100;  119.000;  174.000
846.219; -276.300; -738.000; -720.000
846.469;   20.700;  464.000;  432.000
846.718; -123.400; -115.000;   31.000
846.968; -295.000; -827.000; -827.000
847.218; -107.600; -224.000; -371.000
847.468; -240.800; -586.000; -555.000
847.718; -313.000; -827.000; -798.000
847.967; -285.600; -826.000; -915.000
848.217; -204.900; -449.000; -569.000
848.467; -138.400; -405.000; -376.000
848.716; -255.000; -708.000; -725.000
848.966; -142.100; -372.000; -358.000
849.215; -204.500; -428.000; -419.000
849.465; -278.700; -785.000; -615.000
849.714; -366.700;-1132.000;-1150.000
849.964; -229.400; -551.000; -613.000
850.213; -160.600; -393.000; -355.000
850.463;   -5.400;  137.000;  340.000
850.712; -197.800; -542.000; -567.000
850.961; -234.300; -739.000; -678.000
851.211; -187.700; -513.000; -504.000
851.460; -219.000; -635.000; -650.000
851.709;  -41.900;  -25.000;   18.000
851.958; -281.300; -912.000; -750.000
852.208; -290.400; -859.000; -879.000
852.457; -124.100; -181.000;  -13.000
852.706; -292.400; -791.000; -823.000
852.955; -181.400; -507.000; -528.000
853.204; -202.500; -521.000; -461.000
853.453; -194.000; -418.000; -458.000
853.702; -260.800; -660.000; -750.000
853.951; -219.200; -532.000; -520.000
854.200; -222.900; -613.000; -562.000
854.449; -242.800; -695.000; -661.000
854.698; -133.800; -340.000; -279.000
854.946; -113.100; -181.000; -284.000
855.195; -274.700; -843.000; -868.000
855.444; -156.500; -395.000; -420.000
855.693; -214.600; -345.000; -432.000
855.941; -227.300; -387.000; -516.000
856.190; -117.900; -256.000; -382.000
856.439; -253.500; -652.000; -703.000
856.687;  -68.200;  -99.000;  -72.000
856.936; -216.600; -621.000; -323.000
857.184; -363.500;-1067.000;-1020.000
857.433; -179.600; -423.000; -512.000
857.681; -319.300; -989.000; -953.000
857.930; -154.600; -282.000; -433.000
858.178; -319.000; -856.000; -929.000
858.427; -299.400; -802.000; -781.000
858.675; -199.100; -377.000; -544.000
858.923; -203.200; -527.000; -819.000
859.172; -359.500;-1094.000;-1070.000
859.420; -164.100; -339.000; -239.000
859.668; -256.800; -624.000; -628.000
859.916;  -23.200;  109.000;  115.000
860.164; -260.100; -699.000; -603.000
860.413; -309.400; -878.000; -696.000
860.661; -272.000; -709.000; -577.000
860.909; -165.100; -339.000; -325.000
861.157; -146.800; -277.000; -444.000
861.405; -242.800; -534.000; -670.000
861.653;   33.700;  310.000;  310.000
861.901; -232.500; -543.000; -613.000
862.149; -288.600; -801.000; -824.000
862.396; -134.300; -297.000; -187.000
862.644; -135.500; -368.000; -347.000
862.892;  -40.600;   98.000;  138.000
863.140; -177.000; -549.000; -530.000
863.388; -319.100; -815.000; -759.000
863.635; -233.300; -642.000; -601.000
863.883;   19.100;  231.000;  190.000
864.131; -163.000; -288.000; -357.000
864.378; -258.200; -675.000; -540.000
864.626; -202.600; -347.000; -415.000
864.873; -212.200; -556.000; -505.000
865.121; -256.900; -714.000; -799.000
865.368;  -99.100; -173.000;   75.000
865.616; -113.300;  -33.000;  -40.000
865.863; -207.200; -462.000; -506.000
866.111; -296.100; -795.000; -824.000
866.358; -166.000; -426.000; -420.000
866.605; -118.900;  -64.000; -804.000
866.853; -212.000; -621.000; -537.000
867.100; -297.900; -728.000; -775.000
867.347; -262.900; -672.000; -611.000
867.594; -273.100; -740.000; -714.000
867.841;  -31.400;   97.000;   17.000
868.089; -271.100; -746.000; -698.000
868.336; -171.000; -477.000; -420.000
868.583; -268.200; -637.000; -741.000
868.830;  -68.400; -131.000; -170.000
869.077; -297.200; -859.000; -787.000
869.324; -219.100; -502.000; -458.000
869.571; -213.800; -398.000; -430.000
869.818; -220.700; -485.000; -439.000
870.065; -185.600; -439.000; -513.000
870.311; -167.600; -456.000; -542.000
870.558; -157.800; -332.000; -311.000
870.805; -134.100; -320.000; -384.000
871.052; -138.800; -494.000; -369.000
871.298; -112.100; -204.000; -131.000
871.545;  -94.900; -151.000; -185.000
871.792; -124.900; -173.000; -222.000
872.038; -120.800;   43.000; -126.000
872.285; -187.100; -496.000; -387.000
872.532; -152.000; -357.000; -387.000
872.778;   87.200;  556.000;  403.000
873.025; -127.600; -384.000; -359.000
873.271;   93.500;  501.000;  578.000
873.517;  -80.300; -133.000; -209.000
873.764;  -88.300; -193.000;  -80.000
874.010;  -93.300; -143.000; -230.000
874.257;  -38.500;  123.000;   90.000
874.503; -230.100; -579.000; -479.000
874.749; -121.100;   31.000;  275.000
874.995;  -85.500;  -80.000;  -20.000
875.242; -223.300; -540.000; -478.000
875.488; -186.000; -414.000; -439.000
875.734;  -95.600; -106.000; -234.000
875.980; -325.200; -872.000;-1032.000
876.226; -144.300; -157.000; -255.000
876.472;   13.500;  343.000;  237.000
876.718;  -79.100;  184.000;  158.000
876.964;  -52.900;   56.000;   55.000
877.210; -279.300; -547.000; -677.000
877.456; -230.800; -630.000; -557.000
877.702; -307.600; -821.000; -832.000
877.948; -167.000; -377.000; -497.000
878.193;    2.400;  361.000;  255.000
878.439; -229.200; -487.000; -472.000
878.685; -172.100; -272.000; -343.000
878.931; -213.600; -618.000; -676.000
879.176; -105.100; -201.000; -201.000
879.422; -322.100; -933.000; -820.000
879.668;  -33.200;   10.000;   79.000
879.913;  -63.300;   53.000;  137.000
880.159;  -95.200; -112.000;  -17.000
880.404; -100.100; -152.000; -162.000
880.650;  -70.400;   91.000;  141.000
880.895; -254.400; -670.000; -710.000
881.141; -208.900; -454.000; -428.000
881.386; -251.800; -503.000; -658.000
881.631; -150.100; -311.000; -166.000
881.877;  -37.000;  112.000;  -13.000
882.122; -237.300; -684.000; -600.000
882.367; -103.300; -136.000; -186.000
882.612;  -98.200;  -80.000; -176.000
882.858; -320.200; -877.000; -823.000
883.103; -174.100; -297.000; -267.000
883.348; -281.000; -759.000; -852.000
883.593; -248.400; -677.000; -602.000
883.838; -112.300; -311.000;  -24.000
884.083;    6.100;  353.000;  288.000
884.328; -162.900; -564.000; -545.000
884.573; -137.500; -196.000; -143.000
884.818; -233.500; -694.000; -531.000
885.063; -175.000; -348.000; -315.000
885.308; -195.100; -475.000; -398.000
885.553;    8.100;  245.000;  325.000
885.797; -212.400; -545.000; -615.000
886.042;  -54.900;    8.000;   58.000
886.287; -122.900; -253.000; -211.000
886.532;  -45.400;   26.000;  204.000
886.776; -145.100; -407.000; -525.000
887.021; -252.300; -621.000; -574.000
887.265; -270.000; -685.000; -689.000
887.510; -241.900; -557.000; -496.000
887.755; -132.300; -194.000; -164.000
887.999; -252.600; -552.000; -575.000
888.244;  -88.800;  -58.000;  161.000
888.488;   36.800;  371.000;  393.000
888.732; -200.900; -368.000; -520.000
888.977; -254.200; -622.000; -567.000
889.221; -278.700; -683.000; -659.000
889.465; -219.500; -422.000; -566.000
889.710;  -91.200;  -56.000; -299.000
889.954;   58.400;  579.000;  467.000
890.198; -237.900; -584.000; -707.000
890.442; -262.300; -716.000; -712.000
890.687; -300.700; -800.000; -753.000
890.931; -142.200; -273.000; -210.000
891.175; -198.300; -502.000; -500.000
891.419; -106.000; -105.000; -110.000
891.663; -112.100; -239.000; -112.000
891.907; -295.600; -801.000; -545.000
892.151; -319.700; -920.000; -815.000
892.395; -197.000; -274.000; -387.000
892.638;   39.100;  408.000;  291.000
892.882; -310.000; -780.000; -867.000
893.126;  111.300;  758.000;  558.000
893.370; -158.200; -167.000; -168.000
893.614; -267.800; -714.000; -715.000
893.857; -164.300; -183.000; -197.000
894.101; -200.200; -527.000; -631.000
894.345;  -32.600;  300.000;  150.000
894.588;   96.400;  569.000;  380.000
894.832; -118.200; -178.000;  -84.000
895.075;  -84.700;   15.000;  -92.000
895.319; -208.900; -552.000; -420.000
895.563; -184.900; -413.000; -353.000
895.806; -266.500; -628.000; -741.000
896.049; -202.200; -576.000; -368.000
896.293;   41.900;  527.000;  405.000
896.536; -222.100; -465.000; -468.000
896.779; -102.100; -149.000;   -1.000
897.023; -282.200; -751.000; -714.000
897.266;  -11.900;  325.000;  269.000
897.509; -310.400; -900.000; -901.000
897.752;  -36.100;  149.000;  171.000
897.996; -326.800; -972.000; -864.000
898.239;  -28.900;  168.000;  102.000
898.482; -207.200; -431.000; -453.000
898.725;  -85.300;  101.000;   53.000
898.968; -273.100; -609.000; -744.000
899.211; -227.000; -513.000; -361.000
899.454; -279.900; -633.000; -539.000
899.697; -102.400;   90.000;  -43.000
899.940; -277.600; -761.000; -757.000
900.182; -171.400; -335.000; -405.000
900.425; -107.000; -150.000; -298.000
900.668;   10.300;  491.000;  350.000
900.911; -173.800; -292.000; -345.000
901.154;  -40.800;  141.000;   -3.000
901.396; -213.800; -407.000; -412.000
901.639; -232.000; -430.000; -496.000
901.882; -315.300; -790.000; -809.000
902.124; -138.900;  -29.000; -143.000
902.367; -177.200; -315.000; -361.000
902.609; -213.000; -476.000; -453.000
902.852;  -85.400; -108.000; -260.000
903.094; -230.900; -458.000; -337.000
903.337;  -97.600;  -26.000;   53.000
903.579; -216.300; -228.000; -441.000
903.821; -299.800; -597.000; -744.000
904.064;  -69.700;   85.000;  127.000
904.306;  -91.500; -126.000; -166.000
904.548; -181.400; -152.000; -366.000
904.790; -155.300; -195.000; -340.000
905.033; -247.100; -625.000; -577.000
905.275; -237.100; -513.000; -524.000
905.517;   -0.900;  468.000;  256.000
905.759; -247.100; -667.000; -761.000
906.001; -206.500; -322.000; -369.000
906.243; -142.900; -162.000; -224.000
906.485; -168.600; -265.000; -207.000
906.727; -242.400; -499.000; -542.000
906.969; -154.800;  -30.000; -135.000
907.211; -191.800; -316.000; -382.000
907.453; -141.300; -188.000; -237.000
907.695; -155.300; -158.000; -385.000
907.936;  131.100;  818.000;  706.000
908.178; -128.000;   92.000; -135.000
908.420; -107.900; -111.000; -162.000
908.662; -274.500; -633.000; -682.000
908.903; -185.500; -208.000; -123.000
909.145; -109.000; -240.000; -305.000
909.386;  -28.500;  315.000;  280.000
909.628;   33.700;  363.000;  397.000
909.870;  -33.400;   29.000;  264.000
910.111; -352.500; -809.000; -949.000
910.353; -168.200; -123.000; -161.000
910.594; -246.000; -574.000; -606.000
910.835; -203.600; -265.000; -326.000
911.077; -248.900; -503.000; -604.000
911.318; -239.400; -505.000; -471.000
911.559; -317.700; -577.000; -880.000
911.801; -175.500; -284.000; -280.000
912.042;  -92.600;  -50.000; -159.000
912.283;   -3.100;  404.000;  371.000
912.524; -201.100; -396.000; -457.000
912.765; -141.500; -193.000;   79.000
913.006; -191.400; -307.000; -338.000
913.247; -210.300; -270.000; -290.000
913.488;  -97.600;  -43.000;   30.000
913.729; -214.200; -373.000; -373.000
913.970; -141.700;  -96.000; -292.000
914.211; -120.100; -160.000; -198.000
914.452; -109.000; -118.000;  -11.000
914.693;   26.800;  510.000;  592.000
914.934;   66.700;  510.000;  440.000
915.175;  -88.000;   53.000;  -95.000
915.415; -130.300; -137.000;   27.000
915.656;  -81.100;  -28.000;  192.000
915.897; -146.100; -252.000;  -82.000
916.137; -140.100;   74.000;   -9.000
916.378; -233.200; -573.000; -517.000
916.619; -195.800; -159.000;  -63.000
916.859;   -1.000;  303.000;  330.000
917.100;  333.200; 1655.000; 1070.000
917.340;  119.500;  930.000;  728.000
917.581;   62.800;  965.000;  789.000
917.821; -196.900; -171.000;  143.000
918.061; -126.900; -199.000;  -72.000
918.302; -158.000; -152.000; -211.000
918.542; -114.800;  -22.000;    3.000
918.782;   22.000;  369.000;  377.000
919.023;   -4.000;  360.000;  427.000
919.263; 2086.900; 8131.000;  202.000
919.503; -156.500; -137.000;  -54.000
919.743;   -6.700;  390.000;  266.000
919.983; -129.700; -134.000;  -26.000
920.223;  -84.100;  135.000;   14.000
920.463;  -17.000;  631.000;  554.000
920.703;  -82.400;   84.000;   39.000
920.943; -132.600; -110.000;   90.000
921.183; -224.200; -414.000; -405.000
921.423;   17.200;  307.000;  546.000
921.663; -168.400; -174.000; -257.000
921.903;  -51.700;  237.000;  173.000
922.143;  -59.200;  372.000;  389.000
922.383;  -82.600;  158.000;  115.000
922.622; -139.800; -120.000;  -15.000
922.862;   70.200;  796.000;  785.000
923.102; -119.200;  -51.000;   33.000
923.341; -157.000;   59.000;   74.000
923.581;  -27.300;  450.000;  360.000
923.821;  -40.900;  301.000;  398.000
924.060;  -43.400;  351.000;  193.000
924.300; -120.600;  -16.000; -128.000
924.539;    2.400;  584.000;  473.000
924.779;   76.500;  812.000;  597.000
925.018;  -38.600;  247.000;  353.000
925.257;   28.800;  595.000;  666.000
925.497;  -36.700;  447.000;  412.000
925.736; -126.900;  -35.000;  102.000
925.975;   24.400;  687.000;  669.000
926.214;   98.900;  907.000;  850.000
926.454;  120.300;  706.000;  757.000
926.693;  -19.000;  419.000;  543.000
926.932;  148.900; 1021.000;  825.000
927.171;  186.100; 1107.000; 1044.000
927.410;  158.100; 1144.000;  967.000
927.649;   99.600;  924.000;  742.000
927.888;   21.600;  590.000;  564.000
928.127;    9.600;  680.000;  678.000
928.366;  104.700;  842.000;  826.000
928.605;   72.400;  831.000;  737.000
928.844;  234.200; 1451.000; 1393.000
929.083;   14.900;  770.000;  613.000
929.321;  223.100; 1335.000; 1359.000
929.560;  158.900; 1158.000; 1122.000
929.799;   -2.000;  574.000;  475.000
930.038;  214.500; 1025.000; 1394.000
930.276;  -28.300;  334.000;  397.000
930.515;   70.000;  827.000;  681.000
930.753;   31.700;  614.000;  589.000
930.992;   42.500;  664.000;  717.000
931.230;   64.900;  847.000;  847.000
931.469;  432.200; 2162.000;  892.000
931.707;  230.300;  840.000;  751.000
931.946;  173.000; 1278.000; 1344.000
932.184;  180.700; 1437.000; 1175.000
932.423;  130.800; 1265.000;  963.000
932.661;  174.000; 1296.000; 1428.000
932.899;   51.500;  987.000;  821.000
933.137;  -17.200;  754.000;  564.000
933.376;  192.100; 1664.000; 1335.000
933.614;  314.600; 1759.000; 1196.000
933.852;  107.000; 1357.000; 1171.000
934.090;  291.300; 1722.000; 1747.000
934.328;  198.400; 1252.000; 1457.000
934.566;  132.600; 1431.000; 1110.000
934.804;  159.100; 1263.000; 1309.000
935.042;  230.400; 1861.000; 1850.000
935.280;  332.600; 2088.000; 2063.000
935.518;  373.500; 2113.000; 2007.000
935.756;  353.200; 2481.000; 2316.000
935.994;  244.100; 1808.000; 1751.000
936.231;  595.800; 2890.000; 2950.000
936.469;  381.000; 2367.000; 2378.000
936.707;  404.500; 2220.000; 2167.000
936.945;  569.700; 2825.000; 2882.000
937.182;  481.500; 2679.000; 2741.000
937.420;  649.200; 3602.000; 3031.000
937.657;  726.900; 3365.000; 3478.000
937.895;  622.500; 3331.000; 3488.000
938.133;  737.800; 3540.000; 3528.000
938.370;  763.100; 3896.000; 4191.000
938.607;  878.700; 4488.000; 4205.000
938.845; 1144.200; 5587.000; 5549.000
939.082; 1101.400; 5387.000; 5177.000
939.320; 1149.300; 5799.000; 5728.000
939.557; 1363.000; 6549.000; 6491.000
939.794; 1496.100; 7285.000; 7097.000
940.031; 1744.400; 8421.000; 8368.000
940.269; 2003.900; 9552.000; 9107.000
940.506; 2267.000;10901.000;10507.000

