
Integration time [ms]: 100.000
Averaging Nr. [scans]: 40
Smoothing Nr. [pixels]: 0
Data measured with spectrometer [name]: 2101013U2
Wave   ;Sample   ;Dark     ;Reference
[nm]   ;[counts] ;[counts] ;[counts] 

394.013;   56.272; -450.257; -315.536
394.305;  218.020; -461.258; -419.536
394.596; 1105.067; -676.269; -527.514
394.887; 2697.183; -796.268; -654.518
395.178; 1060.764;  145.736;   11.476
395.470;   74.025; -210.263; -356.526
395.761;  208.198;  305.734;  394.479
396.052;  338.091; -545.284; -306.489
396.343;  318.511; -557.276; -454.503
396.634;  129.980; -200.279; -290.497
396.926;  120.481; -618.268; -565.517
397.217;  122.841;   11.725;  -17.504
397.508;   34.707; -366.273; -154.507
397.799;   47.705; -555.279; -571.497
398.090;   -6.026; -973.280; -902.495
398.381;  127.866;   11.708;  -11.473
398.672;   -7.232; -585.292; -742.473
398.963;   62.036; -348.279; -373.498
399.254;  116.527;   54.709; -209.475
399.545;  -19.805;-1017.266; -883.520
399.836;   75.875; -407.277; -343.501
400.127;   63.418; -205.295; -209.468
400.418;   70.151; -423.274; -392.506
400.709;   59.936; -359.281; -333.493
401.000;   53.081; -268.291; -309.476
401.290;   98.504;  225.698;  115.545
401.581;   64.924; -166.286; -228.485
401.872;   25.440; -542.298; -486.462
402.163;   70.635; -313.296; -252.467
402.454;   98.602; -123.291; -163.475
402.744;   93.727; -844.297; -813.465
403.035;  450.733; -226.293;  -86.471
403.326;  608.870; -366.292; -384.474
403.617;  400.509;  204.701;  165.539
403.907;  245.322; -593.283; -679.490
404.198; 2397.883; -545.307; -599.446
404.489; 6253.077; -618.283; -588.491
404.779; 2116.433; -618.302; -660.456
405.070;  226.786;  -67.304; -174.451
405.360;  327.735; -259.293; -238.472
405.651;  355.844;  125.699;   98.542
405.942;  185.594;  209.714;  127.516
406.232;  260.409; -432.285; -413.487
406.523;  497.853;  641.706;  758.530
406.813;  104.797; -579.286; -644.484
407.104;  353.340;  261.708;  144.527
407.394;  194.735; -604.299; -591.462
407.685;  154.808;  336.715;  222.513
407.975;   61.676; -400.283; -382.490
408.265;  119.542; -134.289; -190.478
408.556;   64.749; -472.291; -459.475
408.846;  151.653;  474.706;  429.530
409.137;   77.375;   -1.288; -216.480
409.427;   64.634; -193.285; -271.487
409.717;   39.510; -776.273; -692.508
410.007;  148.102;    4.715; -170.486
410.298;   89.695; -360.295; -342.469
410.588;   75.106; -495.285; -510.486
410.878;   30.536; -792.287; -873.482
411.168;  122.317; -481.298; -478.463
411.459;  119.270; -295.283; -242.489
411.749;   70.998; -609.292; -507.474
412.039;   67.298; -755.289; -386.480
412.329;  206.068;   40.722;  132.501
412.619;  187.922;  -62.286; -148.485
412.909;  372.620;  639.711;  594.521
413.199;  359.825; -130.280; -251.495
413.490;  424.760;  521.710;  352.523
413.780;  154.704;-1013.279; -913.496
414.070;  353.787;  -46.276;  235.497
414.360;  364.839; -729.278; -666.498
414.650;  423.257; -726.288; -688.482
414.940;  542.778; -538.280; -441.496
415.230;  931.304;   50.712;   74.519
415.520; 6065.391;  155.730;   66.486
415.809;23967.611; -305.281; -125.493
416.099;18432.778; -388.277; -229.501
416.389; 5144.849;  435.726;  236.494
416.679; 3001.629;   91.738;   85.473
416.969;  537.841; -527.287; -503.483
417.259;  483.480;  341.721;  171.503
417.549;  695.735;  522.718;  318.508
417.838; 1645.383; -205.268; -147.518
418.128; 5455.265;  650.710;  492.522
418.418; 4554.141; -491.272; -579.509
418.708; 3088.799;    9.726;  -48.506
418.997;11547.695; -474.275; -480.505
419.287;11964.831; -733.273; -790.507
419.577;11392.170; -160.283; -123.489
419.866;37628.200; -588.277; -498.501
420.156;38454.112; -242.270;  -55.513
420.446; 6976.221; -112.263;  -26.526
420.735;  895.181; -376.271; -446.512
421.025;  838.739; 1830.722;  315.502
421.314;  706.029; -203.271; -226.512
421.604; 1535.600;   89.732;  233.484
421.893;  884.975; -705.271; -602.511
422.183;  237.796; -487.263; -461.526
422.472;  383.477;  -36.271; -107.511
422.762;  494.476; -416.266; -379.521
423.051;  265.713; -916.276; -916.503
423.341;  311.208; -491.273; -439.507
423.630;  433.482; -121.265;   15.477
423.919;  402.869;   58.725;   49.495
424.209;  389.402;  -31.263;   56.473
424.498;  505.930;   68.732;  161.483
424.787; 1096.911; -535.267; -601.518
425.077; 3375.005;   34.735;   29.478
425.366; 4851.182; -734.262; -744.528
425.655; 9971.258;  639.727;  259.493
425.945;21297.161; -313.247; -268.554
426.234;11826.955;  117.741;  300.467
426.523; 5083.060;  -86.259; -350.534
426.812; 6933.196;  107.734;  159.480
427.101;10200.147; -127.269; -323.515
427.390;12919.141;  -55.270;  -86.514
427.680; 3026.755; -624.257; -411.538
427.969;  492.766; -330.255; -301.540
428.258;  321.396; -385.257; -477.536
428.547;  551.270;  449.728;  397.490
428.836; 1342.607; -421.253; -398.543
429.125; 1916.487; -199.259;  -72.534
429.414;  845.004; -330.251; -294.548
429.703; 3105.454; -231.251; -213.548
429.992; 9335.983; -938.250; -828.549
430.281; 6099.489; -397.264; -331.524
430.570;  583.920;  -21.252;   32.454
430.859;  582.210;  279.741;  352.466
431.148;  436.632;  636.752;  631.446
431.437;  288.069;  391.748;  367.454
431.725;  146.223; -544.257; -481.536
432.014;  133.639; -845.253; -756.545
432.303;  386.033; -149.239; -105.569
432.592;  655.546; -460.263; -178.525
432.881; 1055.983; -601.248; -437.554
433.169; 6185.416; -343.255;  -61.540
433.458;12471.641;  445.765;  540.424
433.747; 5234.288; -397.261; -289.529
434.036;  913.383; -275.242; -280.564
434.324; 2069.720; -395.249; -379.551
434.613; 3607.952;   40.757;  159.437
434.902; 1209.398;  333.760;  439.433
435.190;  600.606;   75.761;  295.431
435.479;  313.059;  -52.245;   83.441
435.767;  102.992; -411.244; -427.561
436.056;  211.154; -340.242; -294.563
436.345;  374.450; -372.240; -223.568
436.633;  372.266;   60.750;  383.450
436.922;  288.502;  208.760;  414.432
437.210;  621.631; -194.236;    1.426
437.499; 2035.964; -583.235; -432.576
437.787; 2248.481; -339.236;  -10.574
438.075;  551.237;   56.761;  162.430
438.364;  752.114;  -44.238;  250.429
438.652;  462.344; -286.226; -138.592
438.941;  139.058;    3.770;  269.415
439.229;   13.217; -665.252; -466.545
439.517;   27.123; -160.234;  -85.577
439.806;   -6.740; -501.225; -290.595
440.094;  195.580;  377.766;  650.421
440.382;  195.634; -653.233; -302.580
440.670;  212.789; -361.235; -285.576
440.959;   27.377; -347.223; -170.599
441.247;   84.395; -151.229; -109.587
441.535;   93.621; -266.235;   31.423
441.823;   44.978; -497.234; -305.578
442.111;  204.099;  173.771;  327.412
442.400;  563.883; -628.245; -335.559
442.688; 1524.030; -111.234; -620.579
442.976; 1066.815; -786.213; -450.617
443.264;  110.891; -324.224; -364.597
443.552;  118.220; -258.226;   51.408
443.840;  172.345;  602.765;  876.423
444.128;  117.908;  265.767;  269.420
444.416;    3.651; -694.228; -312.588
444.704;   32.907; -465.219;  -92.605
444.992;   89.173;   -0.226;  240.407
445.280;   51.384; -517.230;  -94.585
445.568;   51.443; -694.212; -396.618
445.856;  364.366; -174.221;  357.398
446.143;  840.153;  -54.220;   -7.604
446.431;  678.455;  -25.228;  625.411
446.719;  242.226;  489.783;  675.391
447.007;  195.453;  481.769;  705.416
447.295;  188.874;  597.777;  871.402
447.583;   90.367; -464.229;  -34.587
447.870;  164.713; -434.221; -202.601
448.158;  447.683; -104.230;  129.415
448.446;  346.304; -800.219; -338.604
448.733;  185.993;   13.776;  269.403
449.021;  269.018;   60.788;  341.382
449.309;  196.333; -296.210;  208.379
449.596;  194.547;  128.783;   59.392
449.884;  161.831; -571.222; -325.600
450.172;  146.210; -756.227; -406.590
450.459;  431.973;  645.786;  780.387
450.747; 2396.421; -411.218; -147.608
451.034; 7547.931;  493.772;  889.411
451.322; 6234.501; -413.214; -170.614
451.609;  521.394;  292.777;  508.403
451.897;  574.221; -550.203; -183.634
452.184; 1784.499; -622.223; -400.598
452.472; 1676.629;   97.792;  269.375
452.759;  347.130;  512.781;  864.395
453.047;  105.290; -407.212; -125.617
453.334;   82.037; -732.219; -216.606
453.621;   99.828; -438.214; -161.615
453.909;  125.763;   13.796;  384.368
454.196;  110.608; -299.199; -123.641
454.483;  213.959;  317.798;  540.364
454.771;  140.607; -215.208;  196.374
455.058;   32.235; -316.207;  102.374
455.345;  101.513;   71.807;  344.347
455.632;   97.889; -128.207;  235.373
455.919;   51.655;  -82.196;  182.354
456.207;  -55.888; -774.198; -450.642
456.494;  -16.854; -475.200;  -66.639
456.781;   11.579; -399.202; -198.635
457.068;   60.520; -253.206;  -29.628
457.355;   -2.779; -698.206; -401.629
457.642;    8.652; -552.205; -290.630
457.929;    8.179; -778.194; -417.651
458.216;   53.841; -575.212; -354.617
458.503;  238.184; -173.193;  -19.652
458.790;  211.355; -864.208; -630.625
459.077;  263.984;  -77.202;  110.364
459.364;  786.522; -350.195; -210.649
459.651; 1677.443;  -46.206;  220.372
459.938;  776.495; -864.209; -665.623
460.225;  159.587;  132.799;  276.363
460.512;  -33.347; -836.197; -688.645
460.799;  113.669;  -32.218;  320.392
461.086;   62.000; -370.200; -251.640
461.372;   48.613; -509.198; -279.642
461.659;  112.182; -165.196;  108.354
461.946;   63.582; -445.193;  -54.651
462.233;  241.848;  842.800;  888.361
462.519;  352.395; -814.201; -464.639
462.806;  991.553; -768.197; -497.645
463.093;  867.803; -445.191;  -66.656
463.380;  -24.631; -920.186; -824.664
463.666;   55.355; -259.197;  -18.646
463.953;   86.467; -406.195; -243.648
464.239;  213.642; -173.195;  -77.648
464.526;  396.853;  413.806;  743.350
464.813;  334.965; -565.190; -304.658
465.099;  381.933;  606.807;  607.348
465.386;  346.812;  903.807;  921.348
465.672;   23.703; -694.197; -522.645
465.959;   28.632; -598.188; -520.662
466.245;   10.462; -468.193; -359.652
466.532;   92.315; -109.195;   63.352
466.818;   74.069; -357.186; -216.664
467.104;    0.809; -488.182; -415.672
467.391;  -26.684; -628.189; -459.658
467.677;   15.547; -289.186;    9.335
467.964;    8.148; -682.189; -471.660
468.250;   78.150; -331.186; -160.665
468.536;   87.868;   90.811;  180.341
468.822;  -24.563; -821.184; -574.668
469.109;  145.164;  351.827;  471.311
469.395;  202.447;  729.808;  787.346
469.681;  190.471;   46.811;  156.341
469.967; 1225.900; -699.188; -382.660
470.254; 2681.033; -494.188; -306.662
470.540; 1709.430; -601.196; -476.646
470.826;  251.920; -488.181; -397.675
471.112;  298.691;  288.816;  113.331
471.398;   86.295; -253.183;  -58.670
471.684;   38.798; -626.177; -447.680
471.970;  -11.251; -918.180; -981.675
472.256;   15.971; -521.192; -441.654
472.542;   22.175; -499.171; -434.691
472.828;   11.905; -743.182; -607.672
473.114;   25.694; -380.166; -283.700
473.400;   12.915; -504.175; -293.684
473.686;   38.125; -452.166; -400.701
473.972;   56.204; -230.174; -131.687
474.258;  -51.035; -925.173; -843.689
474.544;  208.490; -183.178;   -2.679
474.830;  292.891;  -65.175;   45.316
475.116;  484.541; -123.190; -196.658
475.401;  641.451; -558.180; -467.676
475.687;  196.125; -725.180; -718.676
475.973;    6.263; -673.181; -770.673
476.259;  235.994;  736.825;  764.315
476.544;  370.181; -539.176; -437.682
476.830;  800.621; -398.172; -322.690
477.116;  713.280; -430.177; -336.682
477.401;  133.351;  346.820;  358.324
477.687;  -25.360; -289.175; -405.684
477.973;   33.766;   21.819;   28.326
478.258;  -16.130; -448.163; -348.706
478.544;   68.930;   21.815;   61.334
478.829;  -59.444; -818.171; -738.692
479.115;  -41.279; -749.172; -651.690
479.401;  -14.100; -444.174; -449.686
479.686;   34.049; -253.180;  -74.676
479.972;  -27.805; -886.178; -776.680
480.257;   31.070; -258.166;  -65.700
480.542;    0.060; -614.170; -469.693
480.828;  231.438; 1288.824; 1392.317
481.113;  -40.714; -464.176; -426.683
481.399;   -3.731; -236.161; -202.711
481.684;  -47.955; -620.166; -462.700
481.969;   11.083; -158.159;  -73.713
482.255;   -6.305; -439.169; -285.695
482.540;   24.095; -569.178; -441.680
482.825;    5.114; -395.187; -404.663
483.110;   88.949;  -85.169; -105.696
483.396;  186.204; -840.157; -652.718
483.681;  494.329;  543.826;  730.313
483.966;  147.527; -696.160; -700.712
484.251;    2.203; -404.174; -310.687
484.536;    5.055; -356.165; -378.703
484.822;   22.506; -205.173; -218.687
485.107;  -33.558; -599.152; -502.726
485.392;  135.936;  662.836;  541.296
485.677;   87.783;  354.832;  163.302
485.962;   95.302;  160.843;  270.283
486.247;   81.128;  -14.162;   -8.707
486.532;   33.996; -178.166; -325.701
486.817;  168.089;  381.839;  431.291
487.102;  115.875; -453.154; -514.722
487.387;  658.956; -637.156; -652.718
487.672; 1148.391; -154.164;  -38.705
487.957;  723.446; -394.160; -286.711
488.241;  195.934; -290.150; -314.729
488.526;  729.394; -280.152; -148.726
488.811; 1176.097; -881.177; -818.680
489.096;  882.503; -666.154; -702.723
489.381;  497.815;    3.847;  162.275
489.666;  374.994; -428.161; -510.710
489.950;  197.006;  558.846;  627.277
490.235;  -31.196; -480.151; -458.728
490.520;  -38.057; -756.161; -723.710
490.804;  -46.592; -827.156; -736.719
491.089;    4.150; -469.149; -299.732
491.374;   36.340; -132.164;  -75.704
491.658;    1.736; -817.147; -717.735
491.943;  166.623; -657.152; -609.727
492.227;  259.696; -178.155;  -38.721
492.512;   60.976; -294.157; -341.717
492.797;  -62.757; -713.149; -716.731
493.081;  -65.586; -588.147; -598.735
493.366;  -32.630; -751.161; -635.711
493.650;  217.867;  831.859;  917.254
493.935;   28.785; -648.147; -447.734
494.219;  -37.946; -778.142; -687.743
494.503;  -45.837; -585.150; -487.730
494.788;   41.893;   46.842;   74.285
495.072;  114.435;  184.850;  434.271
495.356;  162.828; -463.148; -343.733
495.641;  483.695; -812.146; -736.736
495.925;  450.013; -976.156; -903.719
496.209;   50.049; -599.149; -451.732
496.494;  -49.145; -763.142; -544.744
496.778;   18.500; -364.154; -360.722
497.062;  -65.463; -819.156; -627.719
497.346;  -36.327; -869.160; -640.711
497.631;  140.806;  580.852;  560.266
497.915;   67.281;  -64.145;  175.261
498.199;   52.154; -341.157; -277.718
498.483;   46.542; -562.152; -508.725
498.767;  174.936;  301.850;  300.271
499.051;  189.947; -126.149; -100.732
499.335;   23.970; -693.149; -739.731
499.619;  -44.257; -381.129; -423.767
499.903;   30.970; -272.155;  -65.721
500.187;   26.332; -588.153; -316.724
500.471;   12.222; -796.152; -595.727
500.755;  109.468;   62.839;  -96.710
501.039;   11.670; -270.155; -357.721
501.323;   91.568;  -21.141;  264.254
501.607;   34.996; -447.163; -503.706
501.891;   -5.219; -607.156; -512.718
502.174;  -26.358; -726.144; -585.741
502.458;   82.401;   89.849;  370.273
502.742;   29.392; -180.138; -191.751
503.026;  129.585; -412.147; -254.734
503.310;  166.582; -437.159; -375.713
503.593;  116.137; -464.147; -325.735
503.877;  114.557; -232.133; -156.760
504.161;  199.560;    2.847;  -50.724
504.444;  145.945; -841.158; -710.716
504.728;  463.239; -487.164; -522.704
505.012;  700.158; -257.150;  -76.729
505.295;  528.719; -417.161; -212.711
505.579;  541.912; -256.156; -496.719
505.862;  746.002; -555.145; -333.738
506.146;  729.059; -681.159; -758.714
506.429;  413.709;  568.841;  461.286
506.713;   64.780; -732.151; -667.728
506.996;  316.350;   90.846;  295.278
507.280;  330.134; -633.165; -474.703
507.563;  253.793; -469.155; -261.721
507.847;   91.283; -423.153; -112.724
508.130;   73.970; -665.161; -456.711
508.413;  120.916; -758.167; -577.700
508.697;  259.791; -151.167;   12.300
508.980;  139.085; -422.153; -312.724
509.263;   14.615; -466.155; -450.720
509.547;   30.658; -124.150;   82.271
509.830;   44.122; -172.160;  140.289
510.113;   89.012;  128.844;  298.281
510.396;   27.390; -530.152; -300.725
510.680;  176.603; -818.145; -812.738
510.963;  676.854;  184.846;  180.277
511.246;  569.491; -493.150; -357.730
511.529;  259.233; -482.145;  -83.739
511.812;  364.104; -250.134;   10.241
512.095;  250.677; -740.151; -396.728
512.378;   68.016; -317.147; -245.736
512.661;   39.375; -703.137; -623.753
512.944;   19.706; -750.142; -637.744
513.227;   67.897; -170.137; -171.752
513.510;   13.042; -479.144; -671.741
513.793;   27.923; -485.140; -435.747
514.076;  121.638;  -43.127;  -39.771
514.359;   97.600; -294.149; -135.732
514.642;   90.709; -442.142; -567.744
514.925;  753.846;  581.860;  561.253
515.208;  988.200; -498.134; -443.758
515.491;  659.839; -276.133; -182.761
515.773;  365.846; -410.143; -337.742
516.056; 2071.656;  249.864;  409.246
516.339; 2809.535; -754.136; -652.755
516.622; 1936.338; -518.150; -488.730
516.904; 1363.278;  882.857;  975.257
517.187;  615.471; -730.138; -523.752
517.470;  409.701; -568.143; -510.743
517.752;  419.438; -624.136; -470.756
518.035;  334.533; -708.139; -725.749
518.318;  361.760; -799.136; -744.755
518.600; 2374.568; -300.132; -325.762
518.883; 3289.008;  310.858;   88.256
519.165; 1613.914; -585.138; -426.751
519.448;  412.792;  -61.132;  -19.762
519.730;  226.346; -573.126; -415.773
520.013;  308.835;  588.867;  664.240
520.295;  921.556;  -94.134;  -15.759
520.578; 2056.805; -335.131; -305.764
520.860; 2240.968; -254.132;   56.238
521.143; 1168.590; -763.135; -584.756
521.425;  501.009; -251.125; -279.775
521.707;  693.089; -622.127; -380.771
521.990; 1776.839; -199.127;  167.229
522.272; 1983.799; -116.140;   -4.748
522.554;  924.596; -237.143; -157.742
522.836;  383.729;  -24.134;   99.241
523.119;  234.409; -496.148; -189.734
523.401;  155.912; -448.130; -314.766
523.683;   98.125; -865.137; -693.753
523.965;  266.644;  408.862;  260.248
524.247;  265.930;   54.878;  170.220
524.529;  200.181; -451.134; -367.759
524.812;  359.589;   -3.130;  191.234
525.094;  854.793; -773.138; -631.751
525.376; 1321.418; -143.124;   78.223
525.658;  808.832; -441.136; -339.754
525.940;   17.527; -805.131; -671.764
526.222;   29.386; -188.136;  -88.755
526.504;  127.600; -190.131;   32.237
526.786;  208.283; -960.133; -647.760
527.068;  328.973; -124.123;  -67.778
527.349;  144.154; -865.137; -774.754
527.631;  149.117; -137.132;   22.238
527.913;  130.013; -664.127; -450.771
528.195;  169.402; -761.125; -639.774
528.477;  242.901;  -93.134;  -30.758
528.759;  130.889; -648.130; -522.766
529.040;   61.322; -569.123; -293.778
529.322;   41.704; -235.125;  -10.774
529.604;  153.016;  -47.130;   93.233
529.886;  140.645; -546.126; -302.773
530.167;  123.958;  232.870;  192.235
530.449;   52.140;    1.853;   63.265
530.731;   20.754; -572.122; -459.779
531.012;   57.250; -513.120; -216.784
531.294;   59.839; -118.116;  -43.792
531.575;  143.784;  290.875;  538.225
531.857;   53.570; -548.135; -266.757
532.138;  103.267; -113.141;   40.254
532.420;  189.542;  294.865;  403.244
532.701;  233.885; -722.133; -751.760
532.983;  372.463;  232.867;  182.239
533.264;  122.494; -243.126;  175.228
533.546;  -41.839; -491.136; -508.755
533.827;   53.382;  173.867;   -1.759
534.109;   54.145; -352.135;  -80.757
534.390;   86.171; -725.132; -582.762
534.671;  253.466; -270.135;  -82.756
534.953;  143.500; -751.123; -611.779
535.234;   32.224; -426.117; -255.789
535.515;  -91.992; -891.119; -735.785
535.796;  -18.891; -431.128; -193.770
536.078; -104.458;-1050.124; -904.777
536.359;    5.775;  -22.123;    3.221
536.640;  -17.747; -480.125; -197.774
536.921;  172.946;  225.871;  143.232
537.202;  373.415;  -87.138;  -16.751
537.483;  448.730;  251.869;  377.236
537.764;  167.333;   17.870;   98.235
538.045;  -40.625; -543.134; -371.758
538.326;  -32.802; -596.129; -447.768
538.607;   19.440; -686.127; -476.771
538.888;  167.066;   98.879;    5.218
539.169;  194.660; -704.122; -535.781
539.450;  334.320;  236.871;   16.233
539.731;  228.245; -361.121; -182.783
540.012;  124.150;  199.880;  412.216
540.293;   81.437;   82.876;  158.224
540.574;   10.459; -895.113; -717.796
540.855;  457.493;  435.879;  377.218
541.136;  541.658;   47.878;  139.220
541.416;  280.590; -161.130; -220.766
541.697;  197.325; -274.131; -170.763
541.978; 1026.019; -270.135; -315.757
542.259; 1328.539; -211.127; -236.771
542.539;  624.232; -191.116; -186.790
542.820;  189.108;  461.875;  480.225
543.101;  131.430;  -52.145;  -77.738
543.381;   30.139; -638.127; -591.771
543.662;  280.212;  159.873; -254.771
543.942;  573.610; -751.127; -830.770
544.223; 1053.059;  193.878;  161.219
544.504;  688.942; -275.124; -182.777
544.784;  567.470; -592.126; -408.773
545.065; 1618.286;  104.884; -254.791
545.345; 1909.608;  227.881;   14.215
545.626; 1272.783;  -14.113; -108.796
545.906;  866.082;   77.869;   98.235
546.186;  342.300;   92.874;  -95.773
546.467;  211.145;   99.877;  -95.778
546.747;  319.107;  264.884;  327.210
547.027;  380.266;   91.876;  111.223
547.308;  328.609; -376.127; -530.770
547.588;  413.099;  299.871;  371.232
547.868;  197.809;  458.870;  588.235
548.149;  207.769;  609.885;  593.207
548.429;  118.188; -347.127; -299.771
548.709;  188.024; -645.120; -461.784
548.989;  479.643;   84.882;   88.213
549.269; 2079.641;   10.868;  139.239
549.550; 4759.349;  215.877;  117.222
549.830; 4285.351; -758.111; -556.799
550.110;  849.934; -468.110; -320.801
550.390;  813.854; -128.122;  -56.779
550.670; 1108.879; -868.114; -783.795
550.950;  801.443; -509.121; -471.782
551.230;  182.289;  549.879;  460.218
551.510;  -10.833; -381.121; -326.782
551.790;   32.567; -173.109; -127.803
552.070;  248.595;  940.877; 1181.223
552.350;  405.087; -492.119; -377.786
552.630;  585.637;   -2.121;   77.219
552.909;  356.262;  181.884;   73.209
553.189;  227.797;  -49.132;   33.237
553.469;  207.437; -703.119; -514.786
553.749;  190.291; -469.127; -357.772
554.029;  161.153;   33.883;  -24.790
554.308;  140.798; -154.115;  -37.794
554.588;   56.233; -196.128; -204.770
554.868;   67.119; -366.121;  -47.782
555.147;  147.820; -114.115;  -46.793
555.427;  581.389; -260.116; -250.792
555.707; 3833.118; -284.115; -200.793
555.986; 4604.730; -719.111; -538.800
556.266; 2412.056;   23.884;   72.210
556.546;  117.942; -888.121; -675.782
556.825;  255.477; -657.114; -556.794
557.105; 1740.781; -125.128;   17.230
557.384; 2087.436;  122.884;  187.209
557.664;  785.888; -717.116; -508.792
557.943;  106.943; -557.121; -411.782
558.222;  164.496; -345.118; -344.788
558.502;  281.221; -116.115;  -76.793
558.781;  493.267;  194.885;  499.208
559.061;  401.995; -232.118; -227.788
559.340;  294.400;  302.883;  353.211
559.619;  688.981;   93.884;  148.210
559.899; 1021.202; -239.117; -266.789
560.178;  907.246; -778.115; -593.793
560.457; 3133.404; -623.117; -562.790
560.736; 4324.156; -472.111; -482.800
561.015; 2890.179; -500.128; -502.769
561.295;  376.111;  180.893;  215.193
561.574;  347.243;  119.885;  116.207
561.853;  481.471;  274.891;  303.197
562.132;  501.323;  -45.114;  182.206
562.411;  425.837;  396.879;  553.219
562.690;  140.567; -592.115; -458.792
562.969;  143.966;  472.888;  630.203
563.248;  490.360; 2966.878; 2487.219
563.527;  263.005; -290.111; -408.800
563.806;  387.563; -650.127; -521.771
564.085;  409.551; -297.105; -206.810
564.364;  244.105; -594.117; -405.790
564.643;  499.338; -276.121; -223.781
564.922; 1851.165;  221.890;  397.198
565.201; 1856.268; -640.109; -700.803
565.479;  798.740; -297.115; -219.792
565.758;  318.431; -810.128; -712.770
566.037;  461.995; -155.109; -100.803
566.316;  254.886; -286.116;  -28.791
566.595;   39.718;  -17.115;  -12.793
566.873;   86.657; -166.111;  -79.801
567.152;  -56.435; -490.113; -590.797
567.431;    5.382; -113.116;    6.210
567.709;   10.037; -344.107; -212.807
567.988;  237.502; -810.114; -769.794
568.266;  519.118; -160.115;  -68.793
568.545;  368.198; -644.100; -514.819
568.824;  561.390;  160.885;  356.208
569.102;  541.851; -351.114; -235.794
569.381;  215.614; -492.116; -407.792
569.659;  -45.164; -553.113; -553.796
569.938;   40.208; -743.122; -465.780
570.216;   93.672; -225.109; -225.804
570.494;  -27.995; -632.114; -572.795
570.773;   45.141;  202.879;  114.218
571.051;   11.073; -373.123; -357.778
571.330;   49.984; -221.113; -174.796
571.608;   41.091; -181.098; -173.823
571.886;  -75.376; -671.111; -581.799
572.164;  -73.881; -739.121; -621.782
572.443;  -54.545; -562.105; -512.811
572.721;  -28.246; -399.117; -289.790
572.999;  -31.027; -280.117; -168.788
573.277;  102.274;  379.894;  620.191
573.555;  288.376;   94.894;   37.190
573.834; 1312.672;  -86.117; -114.788
574.112; 1547.039;  880.893;  811.193
574.390;  461.256; -143.111;  -96.801
574.668;    5.291;  -91.112;  -61.797
574.946;   -5.174; -165.106; -187.810
575.224;   18.643;   71.891;  -16.803
575.502;  -27.116; -200.116; -204.791
575.780;  -91.283; -767.112; -829.798
576.058;  148.505; 1589.889; 1004.200
576.336;  -26.489; -210.110; -129.801
576.614;  -60.557; -511.112; -340.798
576.891;   44.097; -711.115; -823.794
577.169;  465.530; -158.108; -285.805
577.447;  544.213;  169.893;  202.193
577.725;  269.122;  629.888;  854.201
578.003;   13.495;  -71.112; -371.798
578.280;   92.889; -208.104; -242.812
578.558;   55.646; -450.115; -422.793
578.836;  127.979; -210.114; -145.795
579.114;   49.166; -630.112; -670.797
579.391;   55.049;   -6.117;  -18.789
579.669;  -84.152; -595.114; -704.794
579.947;  167.560; -326.107; -127.806
580.224;  323.360; -692.107; -524.806
580.502;  308.889;  127.893;   76.193
580.779;   28.330;  -42.117;   75.210
581.057;  -68.528; -584.109; -470.804
581.334;  -92.746; -726.102; -695.815
581.612;   39.302;   54.895;  511.190
581.889;  -35.308;  -83.101; -129.818
582.167;  -22.394; -298.099; -190.821
582.444; -107.788; -845.102; -814.817
582.721;  100.337;  657.899;  715.183
582.999;   47.879; -326.100; -167.821
583.276;  528.477; -812.123; -713.779
583.553;  680.457; -364.102; -294.816
583.831;  229.436; -607.104; -631.812
584.108;   49.478;  349.892;  174.195
584.385;   10.653; -122.102;  -98.815
584.662;  -81.092; -651.111; -828.801
584.940;   43.082;  204.889;  204.199
585.217;  -22.314;  -73.113; -303.796
585.494;   32.816;   71.890;  118.198
585.771;  216.098; -250.109; -354.804
586.048;  499.261; -196.113;  -76.796
586.325;  315.735; -721.110; -773.801
586.602;   88.914;  230.896;  213.188
586.879;  -19.950; -499.100; -580.820
587.156;   51.753; -156.105; -331.810
587.433;  -31.990; -701.102; -667.817
587.710;   65.043;  152.888;  234.202
587.987;  306.308; -264.105; -236.811
588.264;  775.895;  315.888;  387.202
588.541; 1320.192;  -61.104;   26.187
588.818; 2636.800;   72.892;  171.196
589.095; 2224.387; -163.104; -174.812
589.371;  377.096; -459.109; -414.804
589.648;   -0.286; -581.107; -437.807
589.925;   31.005; -517.114; -621.795
590.202;    8.618; -741.112; -607.798
590.478;   75.685; -166.105;  -73.811
590.755;  253.306; -241.108; -132.806
591.032; 2448.612; -741.110; -699.802
591.308; 3368.481; -732.094; -790.831
591.585; 1740.437; -573.110; -560.802
591.862;  139.736;-1056.102; -950.817
592.138;   63.229; -475.108; -474.805
592.415;  136.740; -486.104; -495.813
592.691; 1454.713;  460.896;  518.188
592.968; 1834.893; -208.098; -123.824
593.244;  901.657; -695.116; -595.790
593.521;   73.061; -105.102;  -42.817
593.797;  -16.220; -810.122; -720.780
594.074;  324.731; -611.096; -588.826
594.350;  661.192;  828.905;  729.172
594.626;  307.883; -303.111; -283.801
594.903;  106.937; -643.101; -645.817
595.179;  184.644;  243.896;  418.187
595.455;   14.465; -136.107; -150.807
595.731;   -5.279;  -19.103;  -38.814
596.008;  -35.973; -464.111; -434.800
596.284;   44.152; -187.100; -242.820
596.560;   57.487; -501.093; -493.833
596.836;  183.505; -173.105;  -70.810
597.112;  316.830; -582.108; -437.805
597.388;  280.128;  -49.097;  -48.826
597.665;  120.413;  437.887;  530.203
597.941;  -64.408; -572.089; -658.839
598.217;   14.665; -323.110; -293.802
598.493;  262.425;   61.891; -204.804
598.769;  498.722; -175.100;  -50.819
599.045;  290.008; -490.108; -562.806
599.321;   44.501; -193.100; -261.820
599.597;  120.149; -355.109; -476.804
599.872;  464.742;  409.896;  429.187
600.148;  346.980;  -61.097; -172.826
600.424;  288.487;   91.893;  202.193
600.700;  225.440; -170.107; -280.807
600.976;  122.799; -442.097; -464.825
601.252;  230.696; -226.109; -272.803
601.527;  209.443; -833.104; -840.813
601.803;  141.960; -453.105; -404.812
602.079;  185.222; -124.100; -118.819
602.354;  525.147; -620.092; -531.835
602.630;  810.436; -140.113; -482.796
602.906; 2236.867; -910.101; -863.818
603.181; 6576.762; -627.119; -534.786
603.457; 5564.503;   98.903; -278.826
603.733;  784.770; -605.120; -626.783
604.008;  946.851; -245.106; -164.810
604.284; 2981.813; -636.101; -580.817
604.559; 2621.672;   -3.112;  -42.799
604.835;  474.304; -163.105; -225.810
605.110;  386.082; -732.099; -892.821
605.385;  673.840;  224.907;  267.167
605.661;  630.144; -625.095; -729.829
605.936; 1129.308; -664.108; -737.806
606.211;  971.227;  -17.103; -170.815
606.487;  198.275; -329.114; -376.794
606.762;   10.562; -791.119; -745.786
607.037;  -26.195; -501.105; -433.810
607.313;  -51.037; -589.096; -574.828
607.588;  -14.649; -375.106; -137.810
607.863;   34.067;  -28.101; -143.818
608.138;  183.439;  513.890;  516.198
608.413;   23.861; -576.099; -592.822
608.688;   33.204; -203.108; -267.805
608.964;  197.345; -509.106; -218.809
609.239;  243.927; -107.105; -212.810
609.514;  227.335;  281.895;  240.188
609.789;  635.614; -187.104; -716.812
610.064;  841.761; -435.096; -609.827
610.339;  861.046; -855.109; -799.804
610.614; 1170.477; -131.100; -315.820
610.889;  643.735;  215.895;  107.188
611.163;   36.761; -407.104; -591.812
611.438;   80.751;   81.886; -167.794
611.713;    4.638; -467.101; -499.817
611.988;   47.966; -144.101; -328.818
612.263;  -31.946; -771.102; -717.815
612.538;  213.760;  385.887;  251.204
612.812;  168.803; -832.100; -911.820
613.087;  128.891; -358.098; -338.823
613.362;  -53.135; -497.107; -557.807
613.637;   40.873;  261.897;  138.186
613.911;  -18.802; -256.092; -345.835
614.186;  121.213; -249.107; -292.807
614.460;  651.266; -842.081; -758.854
614.735;  779.540;  -55.087;  -17.843
615.010;  159.980;   43.912;  -82.841
615.284;  244.829;  360.892;  246.195
615.559;  358.822; -792.092; -955.835
615.833;  285.334;  -76.099;  -87.822
616.108;    3.583; -225.090; -390.837
616.382;  121.891;  274.913;  402.156
616.656;  143.809; -241.090; -232.837
616.931;  498.384; -785.099; -700.822
617.205; 1035.943; -973.104; -979.813
617.480;  961.256;  -91.125;    6.225
617.754;  148.004; -396.125; -128.774
618.028;   17.650; -369.129; -382.768
618.302;   52.427;   73.892;  -25.805
618.577;  -42.875; -371.103; -518.815
618.851;  -71.307; -399.109; -600.803
619.125;  -43.369; -335.134; -378.759
619.399;  -46.231; -244.104; -374.813
619.673;  -42.910; -330.115; -515.792
619.947;  -58.921; -333.114; -448.795
620.222;  -10.716; -198.110; -204.801
620.496;   -6.682;  -47.121;  -96.782
620.770;    9.985; -187.122;  -93.781
621.044;  185.703;  323.895;  346.190
621.318;  726.846; -653.120; -614.783
621.592;  653.294; -430.121; -409.783
621.866;  343.823; -476.112; -572.799
622.140;   18.409; -207.116; -356.791
622.413;   55.002;  138.889;  112.200
622.687;  -51.561; -746.101; -492.817
622.961;    4.977; -130.108; -143.805
623.235;  -71.747; -633.111; -661.800
623.509; -107.116; -816.105; -848.811
623.783;    7.736;  -12.107;   48.193
624.056;  -26.578; -254.120; -280.783
624.330;   54.666;   63.888;   -3.797
624.604;   49.455; -271.116; -355.790
624.877;   78.288;  180.890;   26.198
625.151;   35.424; -249.114; -238.794
625.425;  -35.930; -150.103; -283.814
625.698;  -53.144; -367.119; -374.785
625.972;  -89.060; -799.110; -765.802
626.245;   70.307;  685.884;  484.210
626.519;  -59.849; -426.120; -340.784
626.792;  -32.810; -192.107; -380.807
627.066;  -92.772; -485.122; -662.779
627.339; -105.089; -736.110; -663.802
627.613;   25.525;  351.880;  148.216
627.886;   49.517;  187.891; -612.803
628.160;  -18.254;  312.880; -161.783
628.433;  -97.566; -695.125; -703.775
628.706;  -89.649; -517.120; -615.784
628.979;   33.216;  296.876;  117.223
629.253; -107.014; -785.119; -833.786
629.526;  349.069; -334.126; -253.772
629.799;  310.598; -641.123; -479.778
630.072;  142.126; -497.128; -516.769
630.346;  -72.593;-1115.116;-1080.790
630.619;  440.216; -467.107; -545.808
630.892;  615.178;  709.889;  593.200
631.165;  339.568;  790.896;  679.187
631.438;  -87.705;-1092.112;-1055.798
631.711;   48.076;  453.877;  257.221
631.984;  -66.173; -523.117; -624.789
632.257;  -71.376; -636.117; -681.789
632.530;  -60.368; -412.119; -433.785
632.803;   15.772; -109.115;    7.207
633.076;  -85.080; -360.123; -422.777
633.349;   21.405;  173.872;  121.231
633.622;  -45.670; -187.119; -240.785
633.895; -121.528; -903.120; -823.783
634.167;  -74.504; -496.126; -525.773
634.440;  -13.312;  -19.116; -137.792
634.713;    1.760;  -22.119; -120.786
634.986;   76.120;  593.871;  453.233
635.258;  -85.730; -507.115; -597.793
635.531;  104.645;  742.882; -343.788
635.804;  -32.724; -303.117; -318.789
636.077;  -84.990; -830.116; -852.791
636.349;   -6.981; -586.115; -474.793
636.622;  374.418; 1695.874; 1392.228
636.894;  227.176; -474.120; -909.784
637.167;  144.687; -836.127; -789.771
637.439;   14.483; -278.128; -213.770
637.712;  -49.555; -312.126; -293.772
637.984;  -86.665; -635.116; -707.791
638.257;  368.295;  515.877;  488.222
638.529;  541.960; -881.125; -924.776
638.802;  218.151; -508.128; -449.769
639.074; -112.491; -927.122; -952.781
639.346; -133.078; -942.135; -930.757
639.619;   -0.118;  -79.142; -319.744
639.891;   -7.847;  -83.122; -168.779
640.163;  -81.620; -689.122; -756.780
640.435;   28.807;  273.878;  103.220
640.708;   -2.217;  -72.122; -132.780
640.980;  -31.915; -366.122; -362.781
641.252;  183.087;  -25.121;  -71.781
641.524; 1785.164;  580.879;  573.219
641.796; 1762.716;-1094.121; -907.782
642.068;  312.642; -191.121; -300.782
642.340;  -59.281; -486.121; -566.783
642.613;   37.571;  294.880;  323.217
642.885;  -87.777; -787.120; -878.783
643.157;  -45.525; -810.120; -658.784
643.428;   52.652;  170.880;  218.216
643.700;  -70.222; -498.120; -425.784
643.972;  -25.870;  -16.119; -133.785
644.244;  -88.268; -474.119; -559.785
644.516;  -41.316; -250.119; -114.786
644.788;   55.136;  662.881;  548.214
645.060;  -14.112;  -12.119; -124.786
645.332; -108.136; -525.118; -535.787
645.603;   31.791;  479.882;  342.213
645.875;  -85.632; -334.118; -369.787
646.147;  153.595; 1487.882; 1242.212
646.418;  -67.428; -931.117; -918.788
646.690;  125.773; -714.117; -715.789
646.962;   33.125; -413.117; -451.789
647.233;  -10.273;   15.883;   11.211
647.505; -106.296; -595.117; -475.790
647.776;   16.231;  328.884;  229.210
648.048;  -10.517; -248.116; -418.790
648.320;  -75.341; -752.116; -679.791
648.591; -156.214;-1055.116; -958.791
648.862;  -79.812; -505.116; -577.792
649.134;   19.440;  115.885;  198.208
649.405;  -58.508; -661.115; -618.792
649.677;  -63.757; -475.115; -598.793
649.948;  -12.130; -181.115; -296.793
650.219;   -6.478;  -37.115; -147.793
650.491;  -80.126; -431.114; -520.794
650.762; -118.099; -705.114; -731.794
651.033;  -84.472; -437.114; -424.795
651.304;  -82.171; -743.114; -728.795
651.576;  -67.969; -680.114; -645.795
651.847;  -34.267; -250.113; -140.796
652.118;  -28.240;  -32.113; -189.796
652.389; -111.963; -639.113; -722.796
652.660;  -32.462; -147.113;  -89.797
652.931; -136.060; -897.112; -871.797
653.202;  -80.158; -382.112; -541.798
653.473;  -71.206; -633.112; -533.798
653.744;  155.696; -595.112; -590.798
654.015;  135.123; -356.112; -303.799
654.286;  -74.651; -642.111; -663.799
654.557;  -65.474; -586.111; -521.799
654.828; -154.247;-1114.111;-1088.800
655.099;  -82.645; -404.111; -291.800
655.370;  -94.693; -427.111; -543.801
655.641; -123.217; -656.110; -714.801
655.911; -103.765; -618.110; -638.801
656.182;   38.562;  437.890;  387.198
656.453;   71.189;  830.890;  746.198
656.724;  -62.084; -466.110; -426.802
656.994;  -86.282; -553.109; -568.803
657.265; -107.756; -862.109; -873.803
657.536;  -86.404; -500.109; -377.804
657.806; -108.452; -561.109; -593.804
658.077; -143.600; -866.109; -950.804
658.347; -100.998; -523.108; -598.805
658.618; -122.371; -646.108; -694.805
658.888;  -28.820;  -41.108;  112.195
659.159;  -83.368; -432.108; -548.806
659.429;  -12.791; -292.108; -349.806
659.700;    5.886; -435.107; -390.807
659.970;  -24.362; -370.107; -359.807
660.241;   10.139; -754.107; -921.807
660.511;  476.591; -147.107; -174.808
660.781;   75.668; -793.106; -748.808
661.052;  -46.680; -222.106; -381.808
661.322;  -22.528;   21.894;   -9.809
661.592;   18.099;  257.894;  148.191
661.862;  -76.225; -369.106; -382.810
662.133;  -98.373; -551.105; -502.810
662.403; -116.046; -770.105; -676.810
662.673;  -62.344; -256.105; -213.811
662.943; -103.942; -612.105; -551.811
663.213;    1.884;  -85.105;  -81.811
663.483;  -66.764; -593.104; -568.812
663.753;  -39.987; -194.104; -152.812
664.023;   -3.085;   68.896;  -32.813
664.293;  -51.908; -319.104; -126.813
664.563; -110.656; -694.104; -648.813
664.833; -117.380; -743.103; -608.814
665.103; -128.103; -730.103; -793.814
665.373; -125.976; -766.103; -806.814
665.643;  -86.924; -863.103; -918.815
665.913;   37.403; -534.103; -714.815
666.182;  131.654; -685.102; -719.816
666.452;  261.906;  -22.102;  -89.816
666.722;  -14.842; -724.102; -784.816
666.992; -130.165; -948.102; -921.817
667.261;  -99.488; -824.102; -808.817
667.531;  212.339;  134.899;   45.183
667.801;  538.190; -440.101; -412.818
668.070;  248.117;  714.899;  697.182
668.340; -104.956; -883.101; -840.819
668.609;   83.996;  588.900;  301.181
668.879;  -83.027; -490.100; -558.819
669.149;  -89.051; -539.100; -516.820
669.418; -113.074; -698.100; -726.820
669.688;  -20.572; -482.100; -666.820
669.957;   69.180; -423.099; -546.821
670.226;  -15.568; -268.099; -331.821
670.496; -100.416; -431.099; -635.822
670.765;  -87.715; -418.099; -501.822
671.034; -138.288; -872.099; -828.822
671.304;  -11.086;   55.902; -111.823
671.573; -166.834;-1085.098; -957.823
671.842;   78.743; -380.098; -294.823
672.112;   26.895; -692.098; -586.824
672.381;    9.921; -239.098; -214.824
672.650; -150.827;-1005.097;-1021.825
672.919;  -94.325; -631.097; -507.825
673.188;  -98.573; -681.097; -878.825
673.457; -152.821;-1101.097;-1143.826
673.726;  -87.320; -579.096; -646.826
673.995;  -26.243; -533.096; -479.826
674.265;  -24.716; -263.096; -333.827
674.534;   -1.489; -183.096; -235.827
674.802;   -3.662; -618.096; -703.828
675.071;  960.115; -886.095; -801.828
675.340; 3820.916; -464.095; -339.828
675.609; 1273.718;  103.905;   82.171
675.878;   56.870; -949.095; -893.829
676.147;   16.872;  -26.095;   -8.829
676.416;   79.349; -210.094; -294.830
676.685;  729.825; 1000.906; -622.830
676.953;   99.977; -603.094; -452.831
677.222;  -34.046; -193.094; -273.831
677.491;  -35.969;  -24.094; -127.831
677.759;   -6.392;   11.907;  172.168
678.028;  -28.115; -279.093; -222.832
678.297;  -21.964;   71.907;  197.168
678.565; -144.962; -898.093; -944.833
678.834;  -52.585; -311.093; -268.833
679.102;  -83.883; -411.092; -391.834
679.371; -140.056; -898.092; -727.834
679.639; -130.480; -797.092; -786.834
679.908; -109.078; -794.092; -724.835
680.176; -151.026; -895.091; -941.835
680.445;  -75.024; -346.091; -352.835
680.713;  -19.447;  -58.091;  -23.836
680.982; -111.970; -523.091; -525.836
681.250; -125.569; -578.091; -507.837
681.518;  -93.417; -534.090; -751.837
681.787;  -30.315; -204.090; -167.837
682.055;  -74.138; -490.090; -422.838
682.323; -151.036; -993.090; -992.838
682.591;   33.116; -216.090; -538.838
682.859;   74.392;    9.911;  -35.839
683.128;   14.919;  232.911;  497.161
683.396; -160.604;-1102.089;-1122.840
683.664;  -49.752; -241.089;   21.160
683.932;   -9.575;  144.911;  -76.840
684.200;  -80.524; -576.088; -320.841
684.468;  -15.672;  -73.088; -124.841
684.736;  -29.995; -214.088; -175.841
685.004; -116.418;-1024.088; -982.842
685.272;  -43.716; -880.088; -774.842
685.540;  -67.089; -499.087; -557.843
685.808;  -89.663; -651.087; -682.843
686.076; -115.461; -894.087; -969.843
686.343;  -68.309; -601.087; -815.844
686.611;   31.843; -195.087; -224.844
686.879;  430.245; -530.086; -553.844
687.147; 3225.471; -483.086; -480.845
687.414;  929.573;  -12.086; -169.845
687.682;    1.775; -658.086; -757.846
687.950;  301.777;  259.915;  263.154
688.217;   11.154; -792.085; -760.846
688.485;    1.981; -632.085; -636.847
688.753;  509.957;  -11.085; -102.847
689.020;  159.409; -820.085; -851.847
689.288; -111.189; -853.084; -787.848
689.555;  -23.637; -195.084; -148.848
689.823;  -54.910; -241.084; -345.849
690.090;  -92.509; -546.084; -651.849
690.358; -164.632; -877.084; -897.849
690.625;   13.745;  120.917;   45.150
690.892;  -74.303; -403.083; -369.850
691.160;  -28.626;   72.917;  -35.850
691.427;   -2.549;  141.917;  130.149
691.694; -136.723; -855.083; -929.851
691.962; -161.696;-1177.082;-1060.852
692.229;    9.056;  127.918;   56.148
692.496;   65.408;  130.918;  -49.852
692.763;   16.285; -164.082; -201.853
693.031;  -86.314; -739.082; -716.853
693.298;  -38.337; -509.081; -368.853
693.565;  311.090; -155.081; -163.854
693.832; 1250.842;   -5.081;   -9.854
694.099;  139.844; -643.081; -642.855
694.366;  -51.154; -882.081; -896.855
694.633;  -59.903; -920.080; -633.855
694.900;  730.349; 4367.920; -114.856
695.167;  399.801; -214.080; -380.856
695.434;   95.103; -646.080; -623.856
695.701;  181.305;  121.921;  -61.857
695.968;  462.982; -365.079; -361.857
696.234;  974.283; -415.079; -646.858
696.501;10309.010; -776.079; -614.858
696.768; 5232.637; -554.079; -617.858
697.035;  323.214; -632.078; -667.859
697.302;   20.691; -448.078; -552.859
697.568;   14.442; -458.078; -497.859
697.835;  -53.081; -683.078; -624.860
698.102;  -14.129; -498.078; -407.860
698.368;   60.773;  384.923;  396.139
698.635;  -26.950;  -47.077; -424.861
698.901;  -29.023; -240.077; -348.861
699.168;   66.528; -534.077; -456.862
699.435;   67.805;  -72.077;  -13.862
699.701; -114.068; -868.076; -764.862
699.968;   10.484;  144.924; -441.863
700.234;  -92.914; -783.076; -822.863
700.500;  -59.988; -448.076; -539.864
700.767;    1.539;   -1.075;   26.136
701.033; -127.134;-1015.075; -963.864
701.299;  -49.757; -450.075; -483.865
701.566;  122.120;  950.925;  763.135
701.832;   39.522;  -31.075;  -76.865
702.098; -102.602;-1054.074;-1034.866
702.365;  -88.900;-1098.074;-1030.866
702.631;  -32.723;-1038.074;-1063.867
702.897; 1355.779; -765.074; -676.867
703.163; 2196.556;  348.926;  254.133
703.429;  144.107; -256.073; -273.868
703.695;  -30.916; -796.073; -792.868
703.961;   12.886; -214.073; -210.868
704.227;  -45.387; -630.073; -725.869
704.493;  140.240;  613.927;  510.131
704.759;  -28.808; -565.072; -540.870
705.025;   28.718; -203.072; -194.870
705.291;   -6.855; -666.072; -562.870
705.557;  192.572;  719.928;   34.129
705.823;   22.399; -742.072; -694.871
706.089;  155.601; -307.071; -326.871
706.355;  362.128; -315.071; -244.872
706.620; 5546.329; -776.071; -729.872
706.886; 7752.581; -309.071; -362.873
707.152;  720.208; -818.070; -973.873
707.418;  -23.165;-1153.070;-1186.873
707.683;    7.937; -550.070; -530.874
707.949;  -46.487; -547.070; -578.874
708.215;    7.665; -129.070; -207.874
708.480;  -35.633; -520.069; -420.875
708.746;   94.069;   68.931;   28.125
709.011;  -70.679; -578.069; -612.876
709.277;  -77.977; -538.069; -543.876
709.542;  -54.826; -428.069; -387.876
709.808;    7.526;  -59.068;   89.123
710.073;  -81.572; -577.068; -695.877
710.339;  -27.795; -242.068; -228.877
710.604;   69.632; -780.068; -845.878
710.869;  314.508; -277.068; -366.878
711.135;  -72.615; -715.067; -628.879
711.400;  -84.763; -507.067; -608.879
711.665;  -69.086; -404.067; -479.879
711.931;  -90.634; -661.067; -677.880
712.196; -123.657; -876.067; -954.880
712.461;  109.144; -402.066; -490.880
712.726;  135.371; -727.066; -771.881
712.991;  -97.252; -647.066; -664.881
713.256;  -51.500; -350.066; -332.882
713.521;  -42.173; -417.065; -381.882
713.787;  -79.147; -454.065; -472.882
714.052;  -16.195; -214.065; -400.883
714.317; -105.868;-1045.065; -981.883
714.581;  993.234; -374.065; -268.883
714.846; 1398.361; -822.064; -888.884
715.111;  141.338;  261.936;  257.116
715.376;  -36.836;  -86.064; -223.885
715.641;  -13.359; -365.064; -367.885
715.906;  279.268;   15.936; -551.885
716.171;  127.820;  221.937;  209.114
716.436;   30.872;  -78.063; -104.886
716.700; -104.177; -818.063; -692.886
716.965; -134.100; -794.063; -807.887
717.230;  -77.948; -339.063; -392.887
717.494;  -34.071;  -40.062; -134.888
717.759;  -90.169; -784.062; -640.888
718.024;   -0.067;  269.938;  250.112
718.288;   73.284;  685.938;  395.111
718.553; -156.014; -803.062; -977.889
718.817; -142.637; -883.061; -899.889
719.082;  -31.510; -115.061; -125.890
719.346; -147.983;-1000.061; -947.890
719.611;  -49.506; -300.061; -255.891
719.875;  -98.880; -568.060; -537.891
720.140;  -66.153; -453.060; -603.891
720.404;   36.349; -136.060; -249.892
720.668;  826.601; -475.060; -411.892
720.933;  314.728;  146.940;  137.108
721.197; -103.521; -667.059; -600.893
721.461; -133.794; -851.059; -826.893
721.725;  -20.317;  -21.059; -250.894
721.990;  -51.665; -284.059; -204.894
722.254;  -33.463;  -26.059; -108.894
722.518;  -71.461; -286.058; -442.895
722.782;  -96.710; -743.058; -594.895
723.046;  112.067;  614.942;  570.105
723.310;   20.919;  374.942;  210.104
723.574;  -99.679; -654.058; -614.896
723.838; -105.552; -576.057; -642.897
724.102;  -56.701; -226.057; -239.897
724.366; -139.924;-1032.057; -978.897
724.630;  -95.672; -749.057; -571.898
724.894;  -90.820; -722.057; -514.898
725.158;   -1.818;   38.944; -295.898
725.422;  -63.841; -394.056; -327.899
725.685;  -67.315; -441.056; -349.899
725.949;  -93.638; -566.056; -519.900
726.213;  -72.686; -732.056; -811.900
726.477;  178.916;-1020.055; -933.900
726.740;  147.243; -274.055; -104.901
727.004;  316.769; -384.055; -510.901
727.268; 3304.621; -442.055; -400.901
727.531;  915.498; -961.055; -775.902
727.795;  -56.125; -713.054; -673.902
728.059;  -57.423; -552.054; -557.903
728.322;  -85.221; -841.054; -669.903
728.586;   25.555; -692.054; -701.903
728.849;  -86.093; -695.053; -756.904
729.112; -110.366; -812.053; -912.904
729.376; -128.939; -959.053; -905.904
729.639;  -81.612; -536.053; -536.905
729.903; -104.486; -733.053; -699.905
730.166;  -57.684; -437.052; -399.906
730.429;  -37.332; -317.052; -468.906
730.693;  -74.205; -355.052; -894.906
730.956;  214.897;  810.948;  651.093
731.219;  689.749; -310.052; -103.907
731.482;  111.050;-1003.051; -894.907
731.745;   91.302; -794.051; -935.908
732.009;    8.404;  -30.051;   50.092
732.272; -106.494; -904.051; -771.909
732.535;  -44.217; -300.051; -310.909
732.798; -165.765;-1083.050;-1166.909
733.061;  -71.739; -430.050; -456.910
733.324;  -15.512;   31.950; -180.910
733.587;   51.865;  290.950;  365.090
733.850;  -74.608; -973.049;-1050.911
734.113;   33.044;   33.951;   32.089
734.376;    6.370; -328.049; -447.912
734.639;  208.847; 1188.951; 1011.088
734.901;   78.799; -180.049; -402.912
735.164;  493.476; -883.048; -837.913
735.427; 1277.678; -166.048; -355.913
735.690;  124.755; -205.048; -234.913
735.952;  -33.344; -923.048; -925.914
736.215;  -30.792;-1113.048;-1009.914
736.478;   50.785; -771.047; -774.915
736.740;  211.662;   33.953;  129.085
737.003;  666.039; -658.047; -672.915
737.266; 4003.140;  -94.047;   46.084
737.528;  439.317; -682.047; -660.916
737.791;  300.044; -316.046; -327.916
738.053;  782.571;  465.954;  649.083
738.316;10788.273; -162.046; -136.917
738.578; 7650.100; -770.046; -736.918
738.841;  426.551; -382.046; -446.918
739.103;  160.278; -875.045; -777.918
739.365;  490.780;   79.955;  -69.919
739.628;   -4.293; -884.045; -805.919
739.890;  -27.291; -758.045; -710.919
740.152;  -38.965; -692.044; -754.920
740.414;  -10.588; -408.044; -359.920
740.677;  -53.211; -785.044; -634.921
740.939;  -52.734; -587.044; -487.921
741.201;  244.418; -432.044; -572.921
741.463;   24.570; -689.043; -745.922
741.725;   -3.579;  -21.043; -199.922
741.987;   59.098;  220.957;  116.078
742.249;   -1.775; -751.043; -859.923
742.511;  197.727; -703.043; -794.923
742.773;   21.779; -546.042; -546.924
743.035;  118.781;  796.958;  533.076
743.297;  -58.043; -963.042;-1013.924
743.559;  728.134; -278.042; -262.925
743.821;   49.836; -735.042; -744.925
744.083;    9.088;  -44.041; -149.925
744.345;  -86.035; -869.041; -892.926
744.607;   24.866;   75.959;  122.074
744.868;  -49.932; -490.041; -554.927
745.130; -111.130; -994.041;-1008.927
745.392;   35.522;   -1.040;  -44.927
745.653;  -17.076; -411.040; -378.928
745.915;  137.826;  896.960;  631.072
746.177;   51.052;   35.960;  -43.928
746.438;  -17.046; -428.040; -543.929
746.700;  -46.669; -947.039; -988.929
746.961;    5.383; -659.039; -740.930
747.223;  127.235; -190.039;  -74.930
747.484;   80.786; -391.039; -471.930
747.746;  134.588;  -23.038; -106.931
748.007;  122.640; -647.038; -689.931
748.269;  295.267; -468.038; -440.931
748.530;  473.019; -852.038; -638.932
748.791;  259.021; -354.038; -420.932
749.053;  437.072;  286.963;  163.067
749.314;  445.924; -236.037; -169.933
749.575;  502.001; -945.037; -905.933
749.836;  847.903; -217.037;   86.066
750.098; 2403.680;  -60.037;  -21.934
750.359;36239.406;  414.964;  555.066
750.620; 9400.633; -121.036; -220.935
750.881; 1018.135; -585.036; -513.935
751.142; 1310.512; -950.036; -938.936
751.403;16526.839; -789.036; -705.936
751.664; 7390.316;-1034.035; -999.936
751.925;  475.517; -175.035; -262.937
752.186;  269.044; -298.035; -278.937
752.447;  139.196; -590.035; -445.937
752.708;   49.248; -532.035; -648.938
752.969;    7.875; -566.034; -576.938
753.230;    2.026; -777.034; -672.939
753.491;   -1.147; -650.034; -631.939
753.751;   48.730;  109.966;   19.061
754.012;   88.132;  258.967;  181.060
754.273;   59.109; -174.033;  -71.940
754.534;   -2.864; -487.033; -580.940
754.794;  -91.763; -926.033; -911.941
755.055;  133.014; 1051.967;  881.059
755.316;  -51.534; -700.032; -566.942
755.576;  -30.357; -606.032; -576.942
755.837;  -34.805; -527.032; -695.942
756.097;  -28.828; -530.032; -564.943
756.358;  -77.277; -725.032; -770.943
756.618;  -64.625; -705.031; -641.943
756.879;    0.552; -254.031; -349.944
757.139; -123.321;-1098.031;-1116.944
757.400;  -64.569; -538.031; -553.945
757.660;  -14.218; -365.031; -401.945
757.920;    2.759; -266.030; -228.945
758.181;  -39.039; -468.030; -351.946
758.441;  -84.762; -870.030; -809.946
758.701;  -37.735; -308.030; -215.946
758.961;  -28.308; -220.030; -278.947
759.222;  -44.757; -574.029; -502.947
759.482;  -86.280; -683.029; -723.948
759.742;  -96.053; -706.029; -547.948
760.002;  -12.326;  -83.029; -143.948
760.262;   20.151;   50.972;  182.051
760.522;  -32.473; -498.028; -574.949
760.782;  -47.396; -738.028; -612.949
761.042;  -36.494; -618.028; -573.950
761.302;   41.658;   55.972;  -18.950
761.562;   46.710; -164.027; -154.951
761.822;   93.812; -710.027; -551.951
762.082;  -31.387;-1104.027;-1093.951
762.342;   59.140; -328.027; -403.952
762.601;   70.417; -567.027; -506.952
762.861;  349.819; -281.026; -207.952
763.121;  407.046; -406.026; -411.953
763.381; 7319.697; -499.026; -485.953
763.640; 8227.324; -139.026; -307.954
763.900;  361.201; -242.026; -203.954
764.160;   86.453; -458.025; -491.954
764.419;  -20.370; -726.025; -782.955
764.679;  -82.418; -795.025; -726.955
764.939;   -9.617; -124.025; -210.955
765.198;  -88.940; -608.025; -563.956
765.458;  -86.913; -710.024; -612.956
765.717;  -85.711; -454.024; -590.957
765.976;  -64.434; -428.024; -411.957
766.236;  -79.657; -475.024; -610.957
766.495;   31.019;  260.977;   73.042
766.755;  -88.129;-1090.023; -987.958
767.014;   -2.627; -594.023; -665.958
767.273;  -71.225; -373.023; -397.959
767.533;  -34.948; -228.023; -307.959
767.792;  -24.772; -151.022; -188.960
768.051;  -58.520; -228.022; -276.960
768.310;  -88.368; -546.022; -650.960
768.569;   -8.091; -161.022;    4.039
768.828;  -41.964; -285.022; -363.961
769.088;  -99.812;-1050.021; -942.961
769.347;  -75.361; -755.021; -599.962
769.606; -105.134; -876.021; -857.962
769.865; -117.707;-1016.021;-1033.963
770.124;   -4.930; -411.021; -336.963
770.383;  -66.578; -778.020; -910.963
770.641;   -5.752; -398.020; -400.964
770.900;  -70.125; -953.020; -846.964
771.159;  -62.273; -851.020; -951.964
771.418;  -24.746; -917.020; -779.965
771.677;  124.281; -224.019; -293.965
771.936;  128.358; -794.019; -865.966
772.194; 2145.609; -465.019; -437.966
772.453;11042.161; -213.019; -391.966
772.712;  775.713;  416.982;  329.033
772.970;  114.215;   32.982;   63.033
773.229;   81.417;  -22.018;  102.033
773.488;  -97.682; -814.018; -770.968
773.746;   35.995;  296.982;  335.032
774.005;   -1.053;  190.983;  -22.969
774.263;    8.474;  243.983;  177.031
774.522;  -51.374; -422.017; -548.969
774.780;  -78.697; -484.017; -417.970
775.039;  -94.696; -551.017; -531.970
775.297;  -23.769; -135.016; -351.970
775.555;  -95.867; -489.016; -612.971
775.814; -121.415; -618.016; -570.971
776.072; -125.513; -749.016; -740.971
776.330; -103.587; -630.016; -520.972
776.589; -119.960; -703.015; -721.972
776.847; -115.483; -645.015; -624.973
777.105; -174.856;-1016.015;-1032.973
777.363;  -84.429; -459.015; -454.973
777.621; -136.477; -660.015; -717.974
777.879;  -21.876;  -42.014;   32.026
778.138;  -98.224; -554.014; -717.974
778.396; -109.722; -585.014; -526.975
778.654; -167.945;-1015.014; -970.975
778.912;  -69.068; -269.014; -371.976
779.170; -132.991; -880.013; -803.976
779.427; -142.540; -922.013; -897.976
779.685; -139.863; -880.013; -832.977
779.943;  -83.161; -654.013; -593.977
780.201; -162.609; -964.012; -883.978
780.459; -116.807; -651.012; -610.978
780.717;  -78.856; -440.012; -390.978
780.974; -100.404; -449.012; -490.979
781.232;  -81.352; -358.012; -338.979
781.490;  -92.025; -551.011; -472.979
781.747;  -95.823; -555.011; -476.980
782.005;   10.679;  462.989;  254.020
782.263; -156.320; -542.011;-1004.981
782.520;  -98.218; -326.011; -501.981
782.778; -178.341;-1013.010;-1051.981
783.035; -176.114; -962.010; -938.982
783.293;  -64.512; -248.010; -206.982
783.550;  -66.211; -134.010; -198.982
783.808; -130.509; -764.010; -776.983
784.065; -157.932; -745.009; -874.983
784.322;  -54.180;   25.991;  -86.984
784.580; -131.828; -915.009; -771.984
784.837;  -92.426; -392.009; -466.984
785.094; -132.175; -783.009; -762.985
785.352;  -69.748; -304.008; -404.985
785.609; -102.596; -934.008; -839.985
785.866;  -85.519; -345.008; -401.986
786.123;  -75.517; -639.008; -583.986
786.380; -106.141; -665.008; -604.987
786.637;  -40.914; -225.007; -380.987
786.895;  -23.987; -456.007; -543.987
787.152;  -60.485; -135.007; -267.988
787.409;  -46.358; -123.007; -225.988
787.666;  -93.431; -299.006; -378.988
787.923; -113.830; -616.006; -695.989
788.179; -105.553; -551.006; -584.989
788.436; -108.551; -585.006; -585.990
788.693;  -30.049;  -92.006;  -87.990
788.950;  140.628; -125.005; -112.990
789.207;  208.829; -381.005; -372.991
789.464;  -61.569; -161.005; -301.991
789.720;   -9.417;  150.995;  110.009
789.977; -156.390;-1003.005; -671.992
790.234;  -24.163;   44.996;  -66.992
790.490; -156.361; -884.004;-1031.993
790.747;  -29.535;  -85.004;   22.007
791.004;  -30.633; -426.004; -348.993
791.260;  -79.556; -430.004; -560.994
791.517; -110.954; -843.003; -788.994
791.773;  -50.452; -379.003; -342.994
792.030; -114.600; -596.003; -660.995
792.286;  -98.074; -686.003; -636.995
792.543;  -13.722;  -74.002; -159.995
792.799;  -49.170; -584.002; -382.996
793.055; -163.243;-1179.002;-1210.996
793.312;  -94.066; -827.002; -816.997
793.568;  -59.740; -746.002; -599.997
793.824;   11.337; -226.001; -284.997
794.081;    3.289; -447.001; -508.998
794.337;   57.016; -664.001; -561.998
794.593; 1265.993; -319.001; -271.999
794.849; 6577.370; -746.001; -772.999
795.105;  333.246; -270.000; -261.999
795.361;   18.598; -490.000; -457.000
795.617;  -64.050; -875.000; -945.000
795.873;  -47.300; -360.000; -407.000
796.129;  -36.925; -368.000; -306.000
796.385;  -22.850; -124.000; -156.000
796.641;   58.200;  412.000;  550.000
796.897;  -91.600; -666.000; -635.000
797.153;   44.600;  453.000;  357.000
797.409;  -90.275; -785.000; -868.000
797.665;  -67.325; -625.000; -732.000
797.921;  -72.175; -775.000; -762.000
798.176;  -62.200; -744.000; -747.000
798.432;  -61.625; -824.000; -596.000
798.688;  -78.250;-1174.000;-1078.000
798.943;   76.700; -165.000; -147.000
799.199;   -1.150;-1005.000; -959.000
799.455;  219.925;  369.000;  316.000
799.710;  118.475; -813.000; -380.000
799.966;  285.050; -162.000; -160.000
800.221;  471.225; -638.000; -721.000
800.477;10336.675; -743.000; -710.000
800.732; 9338.100; -773.000; -800.000
800.988;  648.700;  205.000;  -19.000
801.243; 1753.650; -454.000; -344.000
801.498; 7807.250; -814.000; -739.000
801.754;  451.700; -289.000; -163.000
802.009;   79.100; -257.000; -335.000
802.264;  -51.225; -967.000;-1033.000
802.520;   11.675;  222.000;   -3.000
802.775;  -51.125; -524.000; -359.000
803.030;   47.775;  395.000;  356.000
803.285; -120.200; -840.000; -903.000
803.540;  -74.975; -686.000; -699.000
803.795;  -54.600; -648.000; -583.000
804.051;  -45.800; -279.000; -346.000
804.306;   21.750;  168.000;  128.000
804.561;  143.000;  451.000;  362.000
804.816;  123.100;  714.000;  861.000
805.071;    6.825; -185.000; -280.000
805.325;  203.850; -257.000; -427.000
805.580; -103.450; -841.000; -877.000
805.835;  -20.925; -204.000; -297.000
806.090;  -77.150; -760.000; -676.000
806.345;   -5.525; -344.000; -264.000
806.600;  -36.025; -549.000; -632.000
806.854;  -32.550; -408.000; -538.000
807.109;   -6.900; -493.000; -577.000
807.364;    3.275; -407.000; -328.000
807.618;   -0.250; -415.000; -381.000
807.873;   41.700; -470.000; -494.000
808.128;   92.275; -257.000; -518.000
808.382;   94.850; -224.000; -332.000
808.637;   59.100; -440.000; -511.000
808.891;  168.550; -257.000; -180.000
809.146;  108.350; -902.000; -794.000
809.400;  273.600; -848.000; -923.000
809.654;  336.850; -779.000; -551.000
809.909;  488.250; -841.000; -927.000
810.163; 6400.500; -813.000; -651.000
810.418;17078.325; -940.000; -861.000
810.672; 1048.025; -685.000; -690.000
810.926;  704.625; -993.000; -973.000
811.180; 1398.300; -439.000; -372.000
811.434;31560.125;  240.000;  135.000
811.689;13097.400; -231.000; -365.000
811.943;  644.350; -936.000; -953.000
812.197;  337.150; -893.000; -671.000
812.451;  121.675; -379.000; -514.000
812.705;  -10.175; -809.000; -619.000
812.959;   -8.025; -263.000; -388.000
813.213;   -5.950; -283.000; -209.000
813.467;   63.575;  470.000;  253.000
813.721; -105.500; -764.000; -792.000
813.975; -116.075; -826.000; -877.000
814.229;   32.650;  430.000;  353.000
814.482;  -80.850; -517.000; -566.000
814.736; -124.950; -766.000; -744.000
814.990; -134.375; -779.000; -872.000
815.244;  -53.950; -228.000; -285.000
815.497;  -94.725; -636.000; -601.000
815.751;  -23.250; -141.000;   82.000
816.005;  -95.700; -470.000; -586.000
816.258;  -75.175; -510.000; -363.000
816.512; -108.800; -693.000; -610.000
816.766;    4.725;  121.000;  157.000
817.019;   13.875;  148.000;  149.000
817.273; -113.675;-1000.000; -802.000
817.526;  -45.225; -206.000; -173.000
817.779;  -57.475;-1049.000; -960.000
818.033;  -73.650; -693.000; -807.000
818.286; -124.625; -725.000; -792.000
818.540;  -83.950; -403.000; -403.000
818.793;  -91.475; -402.000; -489.000
819.046; -114.175; -582.000; -520.000
819.299;  -43.925; -157.000; -166.000
819.553; -112.000; -552.000; -592.000
819.806; -166.175;-1016.000; -838.000
820.059;  -72.875; -334.000; -354.000
820.312;   24.225;  152.000;  185.000
820.565;  -20.750;  110.000;  -27.000
820.818;  -42.700;  -59.000; -173.000
821.071; -179.150;-1041.000; -957.000
821.324; -111.525; -536.000; -540.000
821.577; -109.625; -457.000; -483.000
821.830;  -73.600; -270.000; -172.000
822.083; -124.825; -733.000; -288.000
822.336;  -63.225; -261.000; -167.000
822.589; -146.075; -805.000; -688.000
822.842; -140.375; -875.000; -770.000
823.094; -189.525;-1076.000;-1114.000
823.347; -143.300; -925.000; -729.000
823.600;    3.150;  402.000;  187.000
823.853;  -46.850; -311.000; -267.000
824.105;  -88.000; -331.000; -575.000
824.358; -117.725; -617.000; -716.000
824.611;   11.025;  234.000;   40.000
824.863;  -36.025; -612.000; -591.000
825.116;   50.050;  -33.000;   27.000
825.368;   67.950; -366.000; -372.000
825.621;  164.625; -186.000; -240.000
825.873;   84.025; -704.000; -737.000
826.126;  555.600; -669.000; -641.000
826.378;11548.425; -389.000; -505.000
826.630; 2879.600; -890.000; -898.000
826.883;   31.475; -754.000; -693.000
827.135;   33.400; -279.000; -270.000
827.387; -108.400; -893.000; -839.000
827.639;  -22.825;  -86.000;   32.000
827.892; -128.400; -742.000; -582.000
828.144; -145.450; -848.000; -804.000
828.396;  -51.650;  104.000;  -80.000
828.648;  -94.875; -440.000; -333.000
828.900; -146.225; -702.000; -795.000
829.152; -117.600; -684.000; -683.000
829.404;  -67.125; -215.000; -267.000
829.656;  -57.025;  321.000;  214.000
829.908;  -18.525;  393.000;  229.000
830.160; -179.450;-1064.000;-1047.000
830.412; -102.975; -481.000; -430.000
830.664; -129.900; -557.000; -665.000
830.916;  -75.575; -268.000; -206.000
831.167; -180.925;-1073.000; -951.000
831.419; -106.575; -623.000; -566.000
831.671; -154.625; -764.000; -809.000
831.923;  -96.650; -311.000; -447.000
832.174;  -93.450; -273.000; -331.000
832.426; -105.575; -493.000; -582.000
832.678; -198.100;-1043.000;-1091.000
832.929; -163.400; -947.000; -935.000
833.181;  -74.425; -575.000; -677.000
833.432;  -64.950;  -59.000; -186.000
833.684;  -26.725;  112.000;  -27.000
833.935; -119.825; -610.000; -566.000
834.187; -134.000; -829.000; -823.000
834.438;  -60.675;  -58.000;  -25.000
834.689;  -62.225; -255.000; -123.000
834.941;  -70.300; -343.000; -244.000
835.192;  -98.675; -590.000; -533.000
835.443; -105.325; -419.000; -506.000
835.695;  -17.250;  138.000;  -16.000
835.946;  -85.200; -608.000; -378.000
836.197; -116.350; -599.000; -622.000
836.448;  -90.425; -528.000; -395.000
836.699;  -65.625; -253.000; -341.000
836.950;   -5.475;   72.000;    7.000
837.201; -162.775;-1003.000; -987.000
837.452;  -52.725; -356.000; -170.000
837.703; -120.500; -791.000; -737.000
837.954;  -50.850; -205.000; -365.000
838.205;  -84.725;-1029.000;-1008.000
838.456;  162.600; -196.000; -282.000
838.707;    2.375; -423.000; -519.000
838.958;    6.450; -634.000; -647.000
839.209;  274.000;   18.000;   40.000
839.460;  108.000; -439.000; -201.000
839.710;  143.825; -135.000; -297.000
839.961;  430.800;  730.000;  612.000
840.212;  315.575; -382.000; -497.000
840.462; 1107.400; -328.000; -277.000
840.713;17755.425; -571.000; -536.000
840.964; 7390.750;  -62.000; -143.000
841.214;  492.375; -384.000; -624.000
841.465;  544.325; -214.000; -141.000
841.715;  492.800; -417.000; -380.000
841.966;  636.325; -746.000; -685.000
842.216; 8753.750; -330.000; -431.000
842.466;34451.325; -169.000; -313.000
842.717; 1978.375; -964.000; -952.000
842.967;  310.650; -635.000; -641.000
843.217;  269.500;   20.000;   28.000
843.468;   68.675; -104.000; -132.000
843.718;  -40.125; -718.000; -726.000
843.968; -101.400; -837.000; -765.000
844.218;    7.400; -315.000; -262.000
844.469;  -71.025; -577.000; -561.000
844.719; -116.525; -537.000; -682.000
844.969;  -99.775; -550.000; -580.000
845.219; -158.750; -814.000; -862.000
845.469;  -80.550; -392.000; -342.000
845.719; -140.700; -792.000; -884.000
845.969;  -18.225;  119.000;  174.000
846.219; -127.050; -738.000; -720.000
846.469;   14.475;  464.000;  432.000
846.718;  -69.300; -115.000;   31.000
846.968; -141.800; -827.000; -827.000
847.218;  -44.625; -224.000; -371.000
847.468;    5.950; -586.000; -555.000
847.718; -143.600; -827.000; -798.000
847.967; -138.125; -826.000; -915.000
848.217;  -97.225; -449.000; -569.000
848.467;  -59.900; -405.000; -376.000
848.716; -129.300; -708.000; -725.000
848.966;  -15.400; -372.000; -358.000
849.215;  -55.950; -428.000; -419.000
849.465;  -98.150; -785.000; -615.000
849.714; -144.600;-1132.000;-1150.000
849.964;  -69.250; -551.000; -613.000
850.213;  -29.850; -393.000; -355.000
850.463;   84.225;  137.000;  340.000
850.712;    0.000; -542.000; -567.000
850.961;   27.275; -739.000; -678.000
851.211;   93.550; -513.000; -504.000
851.460;  161.375; -635.000; -650.000
851.709;  550.925;  -25.000;   18.000
851.958;10194.075; -912.000; -750.000
852.208;12911.250; -859.000; -879.000
852.457;  461.950; -181.000;  -13.000
852.706;   54.275; -791.000; -823.000
852.955;   14.000; -507.000; -528.000
853.204;  -79.425; -521.000; -461.000
853.453;  -77.950; -418.000; -458.000
853.702; -142.150; -660.000; -750.000
853.951;  -93.550; -532.000; -520.000
854.200; -109.900; -613.000; -562.000
854.449; -134.825; -695.000; -661.000
854.698; -100.275; -340.000; -279.000
854.946;  -74.350; -181.000; -284.000
855.195; -149.225; -843.000; -868.000
855.444;  -95.350; -395.000; -420.000
855.693; -130.075; -345.000; -432.000
855.941; -102.525; -387.000; -516.000
856.190;  -63.225; -256.000; -382.000
856.439; -132.575; -652.000; -703.000
856.687;  -73.300;  -99.000;  -72.000
856.936; -109.225; -621.000; -323.000
857.184; -193.825;-1067.000;-1020.000
857.433;  -99.575; -423.000; -512.000
857.681; -168.650; -989.000; -953.000
857.930;  -74.575; -282.000; -433.000
858.178; -172.775; -856.000; -929.000
858.427; -153.550; -802.000; -781.000
858.675; -122.050; -377.000; -544.000
858.923; -116.975; -527.000; -819.000
859.172; -183.825;-1094.000;-1070.000
859.420;  -95.075; -339.000; -239.000
859.668; -139.825; -624.000; -628.000
859.916;  -31.725;  109.000;  115.000
860.164; -107.100; -699.000; -603.000
860.413;  263.600; -878.000; -696.000
860.661;  212.325; -709.000; -577.000
860.909;  -89.325; -339.000; -325.000
861.157;  -93.150; -277.000; -444.000
861.405; -121.600; -534.000; -670.000
861.653;    4.150;  310.000;  310.000
861.901;  160.250; -543.000; -613.000
862.149;   -3.950; -801.000; -824.000
862.396;  -82.600; -297.000; -187.000
862.644;  -95.325; -368.000; -347.000
862.892;  -21.625;   98.000;  138.000
863.140; -118.000; -549.000; -530.000
863.388; -171.650; -815.000; -759.000
863.635; -132.225; -642.000; -601.000
863.883;  -28.900;  231.000;  190.000
864.131; -105.200; -288.000; -357.000
864.378; -137.800; -675.000; -540.000
864.626; -103.650; -347.000; -415.000
864.873; -120.275; -556.000; -505.000
865.121; -136.425; -714.000; -799.000
865.368;  -57.850; -173.000;   75.000
865.616;  -60.050;  -33.000;  -40.000
865.863;  -82.825; -462.000; -506.000
866.111; -109.675; -795.000; -824.000
866.358;   28.375; -426.000; -420.000
866.605; 2216.175;  -64.000; -804.000
866.853; 2369.575; -621.000; -537.000
867.100;  -46.400; -728.000; -775.000
867.347; -101.050; -672.000; -611.000
867.594;  -81.175; -740.000; -714.000
867.841;   74.050;   97.000;   17.000
868.089; -157.350; -746.000; -698.000
868.336; -110.425; -477.000; -420.000
868.583; -149.625; -637.000; -741.000
868.830;  -56.175; -131.000; -170.000
869.077; -172.275; -859.000; -787.000
869.324; -129.150; -502.000; -458.000
869.571; -132.525; -398.000; -430.000
869.818; -133.075; -485.000; -439.000
870.065; -119.575; -439.000; -513.000
870.311; -121.625; -456.000; -542.000
870.558; -113.250; -332.000; -311.000
870.805;  -97.950; -320.000; -384.000
871.052; -105.400; -494.000; -369.000
871.298;  -70.000; -204.000; -131.000
871.545;  -72.400; -151.000; -185.000
871.792;  -99.475; -173.000; -222.000
872.038;  -75.775;   43.000; -126.000
872.285; -125.750; -496.000; -387.000
872.532;  -96.500; -357.000; -387.000
872.778;   20.225;  556.000;  403.000
873.025; -107.275; -384.000; -359.000
873.271;   10.700;  501.000;  578.000
873.517;  -43.675; -133.000; -209.000
873.764;  -38.150; -193.000;  -80.000
874.010;  -73.400; -143.000; -230.000
874.257;  -47.625;  123.000;   90.000
874.503; -148.125; -579.000; -479.000
874.749;  -76.775;   31.000;  275.000
874.995;  -81.875;  -80.000;  -20.000
875.242; -129.800; -540.000; -478.000
875.488; -117.800; -414.000; -439.000
875.734;  -68.700; -106.000; -234.000
875.980;  177.750; -872.000;-1032.000
876.226;  350.725; -157.000; -255.000
876.472;   -6.850;  343.000;  237.000
876.718;  -52.950;  184.000;  158.000
876.964;  -33.325;   56.000;   55.000
877.210; -149.875; -547.000; -677.000
877.456; -132.100; -630.000; -557.000
877.702; -170.100; -821.000; -832.000
877.948; -122.650; -377.000; -497.000
878.193;    5.200;  361.000;  255.000
878.439; -104.400; -487.000; -472.000
878.685;  -95.950; -272.000; -343.000
878.931; -135.625; -618.000; -676.000
879.176;  -85.325; -201.000; -201.000
879.422; -182.975; -933.000; -820.000
879.668;   28.400;   10.000;   79.000
879.913;  129.950;   53.000;  137.000
880.159;  -64.975; -112.000;  -17.000
880.404;  -65.825; -152.000; -162.000
880.650;  -48.275;   91.000;  141.000
880.895; -154.750; -670.000; -710.000
881.141; -128.525; -454.000; -428.000
881.386; -145.275; -503.000; -658.000
881.631;  -82.625; -311.000; -166.000
881.877;  -54.075;  112.000;  -13.000
882.122; -136.850; -684.000; -600.000
882.367;  -95.825; -136.000; -186.000
882.612;  -75.725;  -80.000; -176.000
882.858; -182.825; -877.000; -823.000
883.103; -105.775; -297.000; -267.000
883.348; -141.750; -759.000; -852.000
883.593; -149.300; -677.000; -602.000
883.838;  -63.775; -311.000;  -24.000
884.083;   11.350;  353.000;  288.000
884.328;  -98.700; -564.000; -545.000
884.573;  -54.625; -196.000; -143.000
884.818;  183.800; -694.000; -531.000
885.063;  190.575; -348.000; -315.000
885.308; -120.750; -475.000; -398.000
885.553;   -3.100;  245.000;  325.000
885.797; -120.600; -545.000; -615.000
886.042;  -53.125;    8.000;   58.000
886.287;  -95.250; -253.000; -211.000
886.532;  -54.400;   26.000;  204.000
886.776; -107.675; -407.000; -525.000
887.021; -152.025; -621.000; -574.000
887.265; -155.475; -685.000; -689.000
887.510; -139.075; -557.000; -496.000
887.755; -103.525; -194.000; -164.000
887.999; -132.800; -552.000; -575.000
888.244;  -66.950;  -58.000;  161.000
888.488;  -14.500;  371.000;  393.000
888.732; -135.400; -368.000; -520.000
888.977; -144.975; -622.000; -567.000
889.221; -166.275; -683.000; -659.000
889.465; -135.650; -422.000; -566.000
889.710;  -91.175;  -56.000; -299.000
889.954;   -9.850;  579.000;  467.000
890.198; -152.125; -584.000; -707.000
890.442; -161.575; -716.000; -712.000
890.687; -165.850; -800.000; -753.000
890.931;  -98.900; -273.000; -210.000
891.175; -159.950; -502.000; -500.000
891.419;  -72.725; -105.000; -110.000
891.663;  -91.175; -239.000; -112.000
891.907; -175.050; -801.000; -545.000
892.151; -186.075; -920.000; -815.000
892.395; -107.925; -274.000; -387.000
892.638;  -32.350;  408.000;  291.000
892.882; -198.250; -780.000; -867.000
893.126;    4.775;  758.000;  558.000
893.370;  -91.175; -167.000; -168.000
893.614; -153.250; -714.000; -715.000
893.857; -101.175; -183.000; -197.000
894.101; -140.025; -527.000; -631.000
894.345;  -61.075;  300.000;  150.000
894.588;    8.600;  569.000;  380.000
894.832;  -99.100; -178.000;  -84.000
895.075;  -91.425;   15.000;  -92.000
895.319; -130.975; -552.000; -420.000
895.563; -127.450; -413.000; -353.000
895.806; -156.200; -628.000; -741.000
896.049;  -76.525; -576.000; -368.000
896.293;   92.675;  527.000;  405.000
896.536;  -73.750; -465.000; -468.000
896.779;  -64.325; -149.000;   -1.000
897.023; -142.350; -751.000; -714.000
897.266;  -41.150;  325.000;  269.000
897.509; -172.775; -900.000; -901.000
897.752;  -60.500;  149.000;  171.000
897.996; -190.875; -972.000; -864.000
898.239;  -52.025;  168.000;  102.000
898.482; -126.275; -431.000; -453.000
898.725;  -38.425;  101.000;   53.000
898.968; -146.575; -609.000; -744.000
899.211; -107.650; -513.000; -361.000
899.454; -123.075; -633.000; -539.000
899.697;  -74.525;   90.000;  -43.000
899.940; -165.350; -761.000; -757.000
900.182; -107.125; -335.000; -405.000
900.425; -113.025; -150.000; -298.000
900.668;  -33.325;  491.000;  350.000
900.911; -115.475; -292.000; -345.000
901.154;  -53.525;  141.000;   -3.000
901.396; -154.325; -407.000; -412.000
901.639; -142.375; -430.000; -496.000
901.882; -200.025; -790.000; -809.000
902.124;  -83.600;  -29.000; -143.000
902.367; -124.050; -315.000; -361.000
902.609; -135.400; -476.000; -453.000
902.852; -100.375; -108.000; -260.000
903.094; -129.450; -458.000; -337.000
903.337;  -71.200;  -26.000;   53.000
903.579; -105.750; -228.000; -441.000
903.821; -172.900; -597.000; -744.000
904.064;  -75.550;   85.000;  127.000
904.306;  -87.325; -126.000; -166.000
904.548;  -94.225; -152.000; -366.000
904.790; -100.975; -195.000; -340.000
905.033; -129.800; -625.000; -577.000
905.275; -130.325; -513.000; -524.000
905.517;   27.900;  468.000;  256.000
905.759;  -74.925; -667.000; -761.000
906.001;  -92.425; -322.000; -369.000
906.243;  -65.675; -162.000; -224.000
906.485;   96.850; -265.000; -207.000
906.727;  107.425; -499.000; -542.000
906.969;  -29.350;  -30.000; -135.000
907.211;   97.225; -316.000; -382.000
907.453;  266.975; -188.000; -237.000
907.695;    4.400; -158.000; -385.000
907.936;   25.725;  818.000;  706.000
908.178;  -77.400;   92.000; -135.000
908.420;  -84.050; -111.000; -162.000
908.662; -153.475; -633.000; -682.000
908.903; -112.025; -208.000; -123.000
909.145;  -65.975; -240.000; -305.000
909.386;    2.100;  315.000;  280.000
909.628;   42.250;  363.000;  397.000
909.870;    0.075;   29.000;  264.000
910.111; -100.350; -809.000; -949.000
910.353;   25.175; -123.000; -161.000
910.594;  -10.925; -574.000; -606.000
910.835;   91.375; -265.000; -326.000
911.077;  149.800; -503.000; -604.000
911.318;  277.400; -505.000; -471.000
911.559;  471.000; -577.000; -880.000
911.801; 1329.025; -284.000; -280.000
912.042;10246.575;  -50.000; -159.000
912.283;27077.675;  404.000;  371.000
912.524; 4247.800; -396.000; -457.000
912.765;  480.950; -193.000;   79.000
913.006;  220.225; -307.000; -338.000
913.247;   53.700; -270.000; -290.000
913.488;    1.300;  -43.000;   30.000
913.729;  -88.800; -373.000; -373.000
913.970;  -70.425;  -96.000; -292.000
914.211;  -66.625; -160.000; -198.000
914.452;  -68.300; -118.000;  -11.000
914.693;    0.625;  510.000;  592.000
914.934;    1.450;  510.000;  440.000
915.175;  -79.300;   53.000;  -95.000
915.415;  -85.925; -137.000;   27.000
915.656;  -69.125;  -28.000;  192.000
915.897;  -98.875; -252.000;  -82.000
916.137;  -63.675;   74.000;   -9.000
916.378; -140.250; -573.000; -517.000
916.619;  -95.275; -159.000;  -63.000
916.859;  -36.900;  303.000;  330.000
917.100;  135.225; 1655.000; 1070.000
917.340;   52.300;  930.000;  728.000
917.581;   41.125;  965.000;  789.000
917.821;  -34.600; -171.000;  143.000
918.061;    7.725; -199.000;  -72.000
918.302;  -41.875; -152.000; -211.000
918.542;  -30.100;  -22.000;    3.000
918.782;    7.325;  369.000;  377.000
919.023;  129.175;  360.000;  427.000
919.263; 1729.050; 8131.000;  202.000
919.503; 1114.225; -137.000;  -54.000
919.743;  594.125;  390.000;  266.000
919.983;  259.550; -134.000;  -26.000
920.223;   87.700;  135.000;   14.000
920.463;  119.750;  631.000;  554.000
920.703;  117.875;   84.000;   39.000
920.943;  167.275; -110.000;   90.000
921.183;  205.050; -414.000; -405.000
921.423;  504.700;  307.000;  546.000
921.663;  721.350; -174.000; -257.000
921.903; 1591.150;  237.000;  173.000
922.143; 8560.600;  372.000;  389.000
922.383;33467.725;  158.000;  115.000
922.622;11551.650; -120.000;  -15.000
922.862; 1254.725;  796.000;  785.000
923.102;  467.550;  -51.000;   33.000
923.341;  192.425;   59.000;   74.000
923.581;   81.825;  450.000;  360.000
923.821;   25.550;  301.000;  398.000
924.060;   -2.075;  351.000;  193.000
924.300;  -41.850;  -16.000; -128.000
924.539;  -21.125;  584.000;  473.000
924.779;   -0.250;  812.000;  597.000
925.018;  -50.475;  247.000;  353.000
925.257;  -11.450;  595.000;  666.000
925.497;  -40.000;  447.000;  412.000
925.736;  -69.725;  -35.000;  102.000
925.975;   -4.200;  687.000;  669.000
926.214;   27.675;  907.000;  850.000
926.454;   11.725;  706.000;  757.000
926.693;  -49.575;  419.000;  543.000
926.932;   24.150; 1021.000;  825.000
927.171;   79.000; 1107.000; 1044.000
927.410;   59.375; 1144.000;  967.000
927.649;   18.075;  924.000;  742.000
927.888;  -10.375;  590.000;  564.000
928.127;   -3.575;  680.000;  678.000
928.366;   25.650;  842.000;  826.000
928.605;   36.475;  831.000;  737.000
928.844;  230.425; 1451.000; 1393.000
929.083;  600.050;  770.000;  613.000
929.321;  324.425; 1335.000; 1359.000
929.560;   82.025; 1158.000; 1122.000
929.799;  -37.750;  574.000;  475.000
930.038;   81.375; 1025.000; 1394.000
930.276;  -57.600;  334.000;  397.000
930.515;   -3.575;  827.000;  681.000
930.753;  -15.375;  614.000;  589.000
930.992;  -23.700;  664.000;  717.000
931.230;   -4.775;  847.000;  847.000
931.469;  172.525; 2162.000;  892.000
931.707;   69.875;  840.000;  751.000
931.946;   57.525; 1278.000; 1344.000
932.184;   64.800; 1437.000; 1175.000
932.423;   57.525; 1265.000;  963.000
932.661;   92.425; 1296.000; 1428.000
932.899;   32.725;  987.000;  821.000
933.137;    9.250;  754.000;  564.000
933.376;  139.500; 1664.000; 1335.000
933.614;  161.150; 1759.000; 1196.000
933.852;   51.650; 1357.000; 1171.000
934.090;  120.775; 1722.000; 1747.000
934.328;  105.000; 1252.000; 1457.000
934.566;   94.375; 1431.000; 1110.000
934.804;  124.450; 1263.000; 1309.000
935.042;  453.275; 1861.000; 1850.000
935.280; 1789.400; 2088.000; 2063.000
935.518; 1744.300; 2113.000; 2007.000
935.756;  384.525; 2481.000; 2316.000
935.994;  162.625; 1808.000; 1751.000
936.231;  349.200; 2890.000; 2950.000
936.469;  185.575; 2367.000; 2378.000
936.707;  161.150; 2220.000; 2167.000
936.945;  229.350; 2825.000; 2882.000
937.182;  204.250; 2679.000; 2741.000
937.420;  293.050; 3602.000; 3031.000
937.657;  422.300; 3365.000; 3478.000
937.895;  350.375; 3331.000; 3488.000
938.133;  311.175; 3540.000; 3528.000
938.370;  338.650; 3896.000; 4191.000
938.607;  395.475; 4488.000; 4205.000
938.845;  535.150; 5587.000; 5549.000
939.082;  484.600; 5387.000; 5177.000
939.320;  522.550; 5799.000; 5728.000
939.557;  657.200; 6549.000; 6491.000
939.794;  735.800; 7285.000; 7097.000
940.031;  907.425; 8421.000; 8368.000
940.269; 1101.550; 9552.000; 9107.000
940.506; 1118.875;10901.000;10507.000

